Time Stamp(ms),Intersection,,Angle,
,x,y,x,y
1136846,320.0527,255.5231,57.99886,51.94942
1136862,320.5446,255.9783,58.03839,51.99892
1136879,321.1409,256.0867,58.08619,52.01068
1136895,322.009,255.9545,58.15556,51.99633
1136914,322.4395,256.3393,58.18985,52.03807
1136930,322.689,256.2335,58.2097,52.0266
1136945,322.9504,255.5964,58.23047,51.9574
1136961,323.2558,255.3186,58.25471,51.92716
1136978,323.6114,255.8314,58.28289,51.98295
1136995,324.2075,255.336,58.33002,51.92905
1137017,324.5888,254.289,58.36011,51.81472
1137032,325.1872,252.9521,58.40722,51.66787
1137046,326.0755,251.9237,58.47693,51.55425
1137063,326.7781,251.3752,58.53186,51.49342
1137086,327.1824,250.9621,58.5634,51.4475
1137100,328.0399,251.5938,58.6301,51.51768
1137116,328.5721,254.3379,58.67136,51.82006
1137133,328.6354,255.6391,58.67626,51.96204
1137149,328.6689,256.3141,58.67885,52.03535
1137164,328.6163,256.7516,58.67479,52.08273
1137182,328.2906,256.7928,58.64954,52.08718
1137198,328.2,256.8156,58.64252,52.08965
1137212,328.1981,256.7383,58.64236,52.0813
1137232,327.9442,256.7167,58.62266,52.07895
1137246,327.271,256.4057,58.5703,52.04527
1137263,326.5553,256.0045,58.51446,52.00176
1137282,325.2939,255.9725,58.41561,51.99829
1137296,323.7172,256.3179,58.29126,52.03576
1137318,322.6562,256.9651,58.2071,52.10581
1137330,321.5523,258.7168,58.1191,52.29433
1137347,320.3941,260.8921,58.0263,52.52621
1137364,318.6718,262.9229,57.88741,52.7405
1137381,316.931,264.5327,57.74594,52.90889
1137398,315.2752,265.8263,57.61033,53.04325
1137413,312.9913,267.3289,57.42161,53.19829
1137431,309.6924,269.7607,57.14554,53.44685
1137446,306.1268,272.4914,56.84245,53.72252
1137462,302.4008,276.2083,56.52039,54.09203
1137480,297.6133,279.1172,56.09839,54.37671
1137496,292.5661,282.7045,55.64325,54.72241
1137514,288.4216,287.3816,55.26142,55.16444
1137531,282.6575,294.0333,54.71791,55.77665
1137548,276.1353,301.4436,54.08484,56.43676
1137564,270.9674,307.7983,53.5691,56.98515
1137581,265.8696,313.4571,53.04774,57.46026
1137599,260.6187,318.218,52.4972,57.85064
1137614,254.4998,324.4957,51.83778,58.35277
1137631,247.6304,332.1892,51.07375,58.94926
1137648,241.9471,340.2311,50.42194,59.55146
1137664,236.8058,347.7105,49.81644,60.09287
1137680,231.6568,354.4375,49.19444,60.56507
1137697,227.4479,360.2674,48.67411,60.96346
1137713,222.9741,365.2902,48.109,61.29886
1137731,217.9511,370.4621,47.45936,61.63689
1137749,215.1142,374.0424,47.0852,61.86664
1137764,213.7687,376.8422,46.9059,62.04394
1137781,211.8985,378.4735,46.65464,62.1463
1137800,210.6333,378.9618,46.48333,62.1768
1137817,208.7659,381.007,46.2285,62.30391
1137835,206.5895,383.8658,45.9285,62.47979
1137849,204.3419,386.8504,45.61523,62.66123
1137865,203.071,389.1114,45.43653,62.79721
1137882,202.154,391.1828,45.30688,62.9207
1137899,201.4734,392.7363,45.21028,63.01264
1137917,200.8722,393.4926,45.12466,63.05719
1137934,200.5886,392.3963,45.08418,62.99257
1137951,200.6759,390.8578,45.09665,62.9014
1137969,200.9412,389.78,45.1345,62.83719
1137986,200.8552,388.9273,45.12224,62.78619
1138010,200.6724,389.6901,45.09615,62.83182
1138026,200.6979,390.679,45.09979,62.89077
1138038,201.1694,390.7826,45.16702,62.89693
1138051,201.544,390.7654,45.22031,62.8959
1138066,201.3804,390.5146,45.19705,62.88098
1138083,201.4722,389.5432,45.2101,62.82304
1138101,201.4146,388.7455,45.20191,62.77529
1138118,201.4568,388.3988,45.20792,62.75449
1138134,201.7563,388.1232,45.25047,62.73794
1138151,202.0111,387.9462,45.28662,62.72729
1138168,202.233,387.8839,45.31807,62.72355
1138185,202.3977,388.1105,45.3414,62.73717
1138202,202.7977,388.573,45.39796,62.76495
1138220,203.1332,388.3775,45.4453,62.75321
1138234,203.266,387.8351,45.46402,62.7206
1138252,203.2122,387.3608,45.45644,62.69204
1138269,203.2221,387.3072,45.45784,62.6888
1138287,203.0915,387.6763,45.43942,62.71105
1138303,203.1389,387.8016,45.44611,62.71859
1138320,203.2531,387.9767,45.46221,62.72912
1138336,203.2785,388.2459,45.46579,62.74531
1138351,203.4311,388.3737,45.48728,62.75298
1138371,203.5538,388.1482,45.50455,62.73944
1138387,203.5604,388.1609,45.50547,62.7402
1138401,203.8234,387.8636,45.54247,62.72232
1138418,204.1983,387.6608,45.5951,62.71012
1138436,204.4494,387.9189,45.63029,62.72565
1138451,204.655,388.2487,45.65908,62.74548
1138467,205.0176,388.2248,45.70978,62.74404
1138484,205.2093,388.0613,45.73654,62.73421
1138500,205.3758,388.0684,45.75977,62.73464
1138517,205.2841,388.3408,45.74698,62.75101
1138534,205.245,388.3942,45.74152,62.75422
1138550,205.2029,388.0705,45.73565,62.73477
1138568,205.2276,387.6149,45.7391,62.70735
1138584,205.1642,387.3692,45.73024,62.69254
1138604,204.8702,387.6449,45.68918,62.70916
1138617,204.5223,387.8608,45.6405,62.72216
1138633,204.2847,387.6039,45.60721,62.70669
1138650,204.1546,387.4647,45.58896,62.6983
1138668,203.6559,388.0106,45.51892,62.73116
1138685,203.2206,388.3286,45.45763,62.75027
1138701,202.8026,388.2385,45.39864,62.74487
1138717,202.6172,387.4826,45.37245,62.69938
1138733,202.3987,386.5076,45.34154,62.6405
1138754,202.0657,386.0125,45.29437,62.61051
1138767,201.6423,385.699,45.23427,62.5915
1138783,201.4741,384.9292,45.21037,62.54469
1138803,201.1622,383.9369,45.16599,62.48414
1138819,200.9465,383.1484,45.13526,62.43585
1138836,200.6856,382.6377,45.09804,62.40449
1138851,200.3085,382.6216,45.04416,62.4035
1138867,199.9742,382.7666,44.9963,62.41241
1138884,199.7504,382.6649,44.96423,62.40615
1138900,199.8024,381.5544,44.97169,62.33775
1138917,199.9571,380.678,44.99385,62.28354
1138936,199.8799,380.6588,44.9828,62.28234
1138953,199.7125,380.6366,44.95879,62.28097
1138972,199.7622,380.2162,44.96592,62.25489
1138987,200.1259,379.826,45.01803,62.23064
1139001,200.4498,379.4876,45.06436,62.20959
1139017,200.628,379.8798,45.08981,62.23399
1139034,200.4738,380.1982,45.06779,62.25377
1139053,200.3008,379.862,45.04305,62.23288
1139068,200.4132,378.8693,45.05912,62.17103
1139085,200.3979,378.6019,45.05694,62.15433
1139102,200.2715,378.2401,45.03887,62.13169
1139117,200.4045,377.3733,45.05788,62.07734
1139134,201.125,375.928,45.16069,61.98627
1139151,202.0574,374.0878,45.29318,61.86953
1139173,202.7892,371.5853,45.39676,61.70933
1139190,203.0924,367.8622,45.43954,61.46788
1139201,203.494,362.4353,45.49614,61.10909
1139221,204.0642,357.2438,45.57628,60.75808
1139237,203.791,350.8013,45.53791,60.31153
1139252,203.2887,345.0474,45.46721,59.90211
1139273,202.5247,339.6072,45.35936,59.5055
1139289,199.5088,334.595,44.92955,59.13165
1139305,199.1564,330.1624,44.8789,58.79409
1139322,200.7096,325.6376,45.10146,58.4426
1139337,202.0474,319.711,45.29177,57.97134
1139355,201.4866,315.4278,45.21214,57.62287
1139375,200.3109,311.3443,45.04449,57.28429
1139387,199.4533,306.8697,44.92158,56.90601
1139404,199.647,302.4906,44.94939,56.52822
1139420,200.5202,297.2322,45.07442,56.06439
1139438,201.3206,292.3513,45.18854,55.62364
1139456,201.9923,288.4479,45.28396,55.26387
1139471,202.6074,284.5797,45.37106,54.90081
1139489,203.434,281.2741,45.48769,54.58526
1139505,204.5225,279.5166,45.64053,54.41549
1139521,205.1672,277.2141,45.73067,54.1909
1139539,205.3047,275.0991,45.74986,53.98244
1139555,205.1307,272.7079,45.72557,53.74422
1139572,205.5666,269.3321,45.78637,53.40325
1139589,206.7264,266.0864,45.94747,53.07017
1139606,207.7491,263.3802,46.08875,52.78847
1139622,208.4296,261.6424,46.18236,52.60563
1139638,208.8875,260.4352,46.24518,52.47771
1139654,209.1618,259.8139,46.28273,52.41158
1139672,209.3851,259.2343,46.31327,52.34972
1139690,209.5619,259.2238,46.33742,52.34858
1139707,209.9481,259.3797,46.39011,52.36525
1139723,209.9591,259.6859,46.39161,52.39793
1139743,209.7366,260.0592,46.36126,52.43771
1139758,209.646,260.828,46.34891,52.51941
1139772,209.2807,261.2759,46.29899,52.56687
1139799,209.0545,261.5182,46.26804,52.5925
1139808,208.6552,262.3093,46.21333,52.67597
1139823,208.2135,262.9372,46.15266,52.742
1139840,208.1465,263.0457,46.14345,52.75339
1139856,208.3527,263.0652,46.1718,52.75544
1139880,207.9573,263.1367,46.11743,52.76294
1139893,207.975,262.5446,46.11987,52.70074
1139906,208.0378,261.821,46.1285,52.62449
1139922,207.851,261.0534,46.10279,52.54331
1139940,208.0592,260.0291,46.13145,52.43451
1139961,208.3461,259.3785,46.17089,52.36512
1139976,208.4465,259.0796,46.18469,52.33317
1139991,208.3767,258.9391,46.17509,52.31813
1140009,208.3822,258.7405,46.17585,52.29686
1140025,208.2613,258.6825,46.15924,52.29065
1140041,208.0792,258.8171,46.1342,52.30507
1140059,208.2167,259.0494,46.1531,52.32994
1140074,209.0296,259.5905,46.26463,52.38776
1140091,210.0269,260.1381,46.40084,52.44611
1140109,211.4277,261.0937,46.59103,52.54757
1140124,212.9401,262.0649,46.79486,52.65023
1140141,215.0362,263.0891,47.07484,52.75795
1140158,218.6828,264.3701,47.55501,52.89194
1140173,222.944,265.025,48.10515,52.96012
1140190,228.0681,265.5245,48.75147,53.01199
1140206,235.6421,266.6591,49.67724,53.12932
1140223,242.769,268.5232,50.51734,53.32072
1140240,249.7624,270.3733,51.31361,53.509
1140256,258.7443,272.4315,52.29727,53.71651
1140273,266.8226,273.5819,53.14618,53.83161
1140290,275.7924,273.4946,54.05101,53.8229
1140308,284.5613,273.9024,54.89906,53.86357
1140326,293.6604,275.1722,55.74284,53.98969
1140341,303.6212,277.5152,56.62648,54.22041
1140360,311.5541,280.1542,57.30185,54.47724
1140377,317.6909,284.3125,57.80783,54.87548
1140391,324.412,286.7826,58.34616,55.10837
1140409,329.8763,287.797,58.77207,55.20324
1140426,333.9196,287.4138,59.08065,55.16746
1140443,337.1276,286.8384,59.32158,55.1136
1140460,340.2103,287.2241,59.54993,55.14972
1140474,341.7602,286.6926,59.66359,55.09993
1140490,343.7952,286.1147,59.81165,55.04566
1140509,344.5803,284.8281,59.86842,54.92432
1140524,345.4764,284.5282,59.93299,54.89592
1140543,346.0974,284.8962,59.97759,54.93076
1140568,346.5573,285.0913,60.01054,54.9492
1140578,346.4716,284.9698,60.0044,54.93772
1140592,346.9644,284.6765,60.03965,54.90997
1140611,347.4189,284.1298,60.07209,54.85815
1140627,347.8544,283.172,60.10312,54.76703
1140642,347.72,282.6664,60.09355,54.71877
1140659,347.7833,282.392,60.09805,54.69252
1140677,347.4166,282.5113,60.07193,54.70394
1140692,347.2514,282.5312,60.06014,54.70584
1140709,347.1559,282.0551,60.05333,54.66026
1140738,347.2179,282.175,60.05775,54.67175
1140748,347.1225,282.4871,60.05094,54.70163
1140759,347.159,283.0964,60.05354,54.75982
1140776,347.4524,283.5798,60.07447,54.80587
1140791,347.511,283.5828,60.07866,54.80616
1140807,347.7644,283.283,60.09671,54.77761
1140825,347.918,283.198,60.10764,54.76951
1140842,348.0977,283.2734,60.12043,54.7767
1140859,348.4953,282.8051,60.14866,54.73202
1140877,349.1029,282.5719,60.19174,54.70973
1140893,349.8956,282.4626,60.24775,54.69928
1140910,351.291,282.5041,60.3459,54.70325
1140927,352.754,282.7624,60.44818,54.72794
1140943,355.0628,283.2289,60.60828,54.77246
1140961,357.9266,283.6729,60.80469,54.81474
1140977,362.1038,284.1596,61.08691,54.86097
1140994,366.2795,284.6498,61.36409,54.90745
1141010,371.1424,285.1435,61.68081,54.95413
1141024,376.917,285.2658,62.04865,54.96568
1141041,384.635,286.0913,62.52677,55.04346
1141058,394.0757,288.2256,63.09145,55.24318
1141088,403.2943,291.0167,63.62246,55.50137
1141102,408.0561,292.8353,63.8892,55.66779
1141120,414.3775,295.238,64.23564,55.88552
1141128,418.7903,296.8392,64.47244,56.02927
1141142,424.4022,298.3273,64.76779,56.16191
1141158,429.3788,299.0253,65.02441,56.22382
1141174,434.0125,299.071,65.25899,56.22787
1141192,438.3614,299.1096,65.47541,56.23129
1141211,442.1817,298.7888,65.66263,56.20287
1141230,446.0256,298.9635,65.8483,56.21835
1141244,450.5161,299.5598,66.06187,56.27109
1141261,454.9206,300.5323,66.26793,56.3568
1141279,458.3136,301.595,66.42439,56.45001
1141295,461.1238,302.6746,66.55251,56.54424
1141310,464.5779,303.7279,66.70821,56.63573
1141328,467.6768,304.5272,66.84623,56.70486
1141344,470.4785,305.5104,66.9697,56.78955
1141361,473.1266,305.9916,67.08525,56.83086
1141377,475.5771,306.452,67.19122,56.8703
1141393,478.9397,307.6362,67.33512,56.97136
1141413,483.6823,308.8934,67.53517,57.07805
1141432,486.2043,309.1075,67.6402,57.09616
1141448,488.633,309.8322,67.74046,57.15732
1141467,491.3096,310.9999,67.84998,57.25546
1141479,492.662,311.65,67.90492,57.30986
1141498,493.6382,312.8193,67.94443,57.40732
1141513,493.0699,313.9163,67.92145,57.49828
1141531,492.9785,315.4037,67.91775,57.62089
1141547,492.6641,316.8809,67.90501,57.74185
1141563,491.4436,318.1121,67.85543,57.84204
1141580,490.7389,319.394,67.82671,57.94579
1141599,490.0798,320.7736,67.79978,58.05676
1141619,488.8405,321.7978,67.74899,58.13871
1141630,487.7946,322.7671,67.70595,58.21592
1141644,487.0549,324.0263,67.67542,58.31571
1141662,486.6229,324.9928,67.65754,58.39193
1141680,486.2421,325.6006,67.64176,58.43969
1141694,485.6814,326.3581,67.6185,58.49904
1141711,485.062,327.0885,67.59274,58.55608
1141730,484.623,327.8733,67.57446,58.61715
1141745,484.3315,328.3857,67.5623,58.65692
1141761,484.1653,328.9972,67.55536,58.70425
1141779,484.1197,329.7168,67.55345,58.75979
1141795,483.6736,330.4482,67.53481,58.81605
1141812,482.9546,331.0953,67.50469,58.86569
1141829,481.9537,331.6263,67.46265,58.90631
1141845,481.8491,331.8997,67.45824,58.92718
1141861,480.1834,332.2912,67.3879,58.95703
1141878,478.5798,332.2993,67.31979,58.95765
1141895,476.9914,332.4698,67.25195,58.97063
1141912,475.545,332.9881,67.18983,59.01004
1141930,474.8215,333.8033,67.15865,59.07185
1141945,474.3846,334.8279,67.13977,59.14921
1141961,474.1155,336.5538,67.12813,59.27874
1141981,473.3224,337.6548,67.09376,59.36085
1141996,472.4749,338.8039,67.05692,59.44614
1142011,471.6616,340.4596,67.02146,59.56826
1142029,471.1132,342.107,66.99749,59.68892
1142044,470.8641,344.2345,66.9866,59.84344
1142061,470.4255,346.3689,66.96738,59.99705
1142079,469.7942,348.3011,66.93966,60.13487
1142094,469.2345,350.5444,66.91503,60.29346
1142112,469.3622,352.8355,66.92065,60.45386
1142128,469.7941,356.0221,66.93965,60.67434
1142146,469.7939,358.3261,66.93964,60.83189
1142161,469.9103,360.614,66.94476,60.98682
1142179,470.3451,363.2857,66.96384,61.16586
1142195,470.6209,365.8168,66.97594,61.33361
1142212,470.6373,368.5403,66.97665,61.51213
1142228,470.3198,370.8456,66.96274,61.66166
1142248,469.6924,372.4803,66.93518,61.76682
1142262,468.808,374.7283,66.89623,61.91027
1142279,468.3744,377.1398,66.87709,62.06266
1142295,468.0235,379.3912,66.86158,62.20358
1142312,467.5448,381.4126,66.84039,62.32899
1142333,466.6126,383.5291,66.799,62.45918
1142346,464.9528,385.5121,66.72498,62.58014
1142361,462.7198,387.4532,66.62469,62.69761
1142379,461.2108,388.7166,66.55646,62.77356
1142394,459.482,390.114,66.47782,62.85711
1142414,458.251,391.653,66.42152,62.94859
1142431,456.4203,392.6306,66.33733,63.0064
1142447,454.9819,394.0653,66.27077,63.09084
1142464,453.5186,394.6904,66.2027,63.12747
1142480,452.6877,395.4935,66.16389,63.1744
1142497,451.8777,396.4537,66.12593,63.23031
1142515,451.3419,397.7073,66.10076,63.30298
1142529,450.8943,399.0739,66.0797,63.38179
1142548,450.5385,399.5388,66.06293,63.4085
1142563,450.2329,399.4719,66.04852,63.40466
1142579,450.9102,399.3625,66.08045,63.39838
1142595,451.8625,400.1164,66.12522,63.44162
1142617,452.1833,400.2381,66.14027,63.44859
1142631,452.4429,400.6623,66.15243,63.47285
1142645,452.9753,400.9564,66.17733,63.48964
1142663,453.5103,401.3289,66.20232,63.51089
1142679,454.0472,401.7003,66.22733,63.53204
1142696,454.2897,401.9114,66.23862,63.54404
1142715,454.3418,402.1121,66.24104,63.55545
1142730,454.5842,402.4404,66.2523,63.5741
1142747,454.8023,402.2807,66.26244,63.56503
1142764,454.9457,402.1646,66.26909,63.55843
1142781,455.5564,402.6677,66.29739,63.58698
1142797,456.1352,402.6084,66.32416,63.58362
1142815,456.6041,402.5355,66.3458,63.57949
1142834,456.8642,402.5164,66.35779,63.57841
1142851,456.9967,402.6757,66.36389,63.58744
1142867,456.8383,402.9321,66.3566,63.60196
1142881,456.692,402.7329,66.34985,63.59068
1142901,456.3537,402.5107,66.33425,63.57808
1142917,455.597,402.6992,66.29927,63.58877
1142934,454.4243,402.9722,66.24487,63.60424
1142951,452.3784,403.4882,66.14941,63.63342
1142968,450.4446,404.0549,66.0585,63.66541
1142983,447.143,405.2423,65.90179,63.73219
1143003,443.5035,406.3116,65.72678,63.79206
1143018,438.2502,407.5735,65.46992,63.8624
1143032,428.0837,409.5695,64.95809,63.97293
1143050,418.2606,411.2504,64.44424,64.06534
1143075,405.8769,414.1598,63.76776,64.22385
1143090,397.2383,417.0222,63.27584,64.37805
1143102,387.567,420.3358,62.70447,64.55442
1143122,378.7111,423.1446,62.16115,64.70216
1143152,358.6326,430.0719,60.85274,65.05975
1143177,353.1615,433.7076,60.47655,65.24368
1143192,348.0877,438.022,60.11971,65.45865
1143203,344.0413,443.6668,59.82947,65.73469
1143218,341.9926,448.6941,59.68056,65.97565
1143229,340.112,452.6403,59.5427,66.16167
1143238,337.7306,456.4288,59.36649,66.33772
1143252,335.8156,459.7668,59.22345,66.49081
1143268,333.4305,463.4643,59.04361,66.65823
1143286,330.819,465.9169,58.84451,66.76804
1143301,327.3531,467.3499,58.57669,66.83174
1143318,322.8418,468.6262,58.22185,66.88821
1143336,316.2192,467.2165,57.68776,66.82583
1143353,311.301,466.9581,57.28068,66.81435
1143370,304.8472,467.462,56.73247,66.83672
1143384,298.8624,468.0571,56.20939,66.86306
1143401,291.3474,466.7951,55.53173,66.80711
1143417,282.1669,466.6228,54.67097,66.79946
1143439,271.8889,466.9457,53.662,66.81381
1143456,264.0391,467.437,52.8574,66.8356
1143473,255.5725,466.7108,51.9548,66.80337
1143484,246.0101,465.6305,50.88976,66.75526
1143500,235.3664,464.4319,49.64414,66.70166
1143517,223.424,461.1837,48.1664,66.55523
1143534,211.0963,459.2705,46.54614,66.46816
1143551,200.4291,459.4904,45.06141,66.4782
1143569,187.6598,461.6024,43.17674,66.5742
1143585,175.8349,461.9049,41.32112,66.58789
1143604,164.7376,462.9486,39.47788,66.63501
1143622,151.3293,466.678,37.11285,66.80191
1143642,143.7125,470.5513,35.6996,66.97289
1143654,135.5726,473.1562,34.13189,67.08654
1143668,129.56,475.4627,32.93517,67.18629
1143684,125.5946,478.7638,32.1277,67.32763
1143702,-1,-1,-1,-1
1143717,-1,-1,-1,-1
1143736,-1,-1,-1,-1
1143752,-1,-1,-1,-1
1143769,-1,-1,-1,-1
1143786,-1,-1,-1,-1
1143804,-1,-1,-1,-1
1143820,-1,-1,-1,-1
1143839,-1,-1,-1,-1
1143854,-1,-1,-1,-1
1143871,-1,-1,-1,-1
1143886,-1,-1,-1,-1
1143903,-1,-1,-1,-1
1143919,-1,-1,-1,-1
1143941,-1,-1,-1,-1
1143954,-1,-1,-1,-1
1143972,-1,-1,-1,-1
1143990,-1,-1,-1,-1
1144002,-1,-1,-1,-1
1144018,-1,-1,-1,-1
1144034,-1,-1,-1,-1
1144053,-1,-1,-1,-1
1144073,-1,-1,-1,-1
1144088,-1,-1,-1,-1
1144103,-1,-1,-1,-1
1144120,-1,-1,-1,-1
1144136,-1,-1,-1,-1
1144153,-1,-1,-1,-1
1144170,-1,-1,-1,-1
1144187,-1,-1,-1,-1
1144206,-1,-1,-1,-1
1144226,-1,-1,-1,-1
1144237,-1,-1,-1,-1
1144253,-1,-1,-1,-1
1144273,-1,-1,-1,-1
1144288,-1,-1,-1,-1
1144303,-1,-1,-1,-1
1144320,-1,-1,-1,-1
1144338,-1,-1,-1,-1
1144354,-1,-1,-1,-1
1144370,-1,-1,-1,-1
1144389,-1,-1,-1,-1
1144404,-1,-1,-1,-1
1144421,-1,-1,-1,-1
1144437,-1,-1,-1,-1
1144457,-1,-1,-1,-1
1144473,-1,-1,-1,-1
1144489,-1,-1,-1,-1
1144506,-1,-1,-1,-1
1144522,-1,-1,-1,-1
1144539,-1,-1,-1,-1
1144555,-1,-1,-1,-1
1144571,-1,-1,-1,-1
1144590,-1,-1,-1,-1
1144607,-1,-1,-1,-1
1144622,-1,-1,-1,-1
1144639,-1,-1,-1,-1
1144654,-1,-1,-1,-1
1144673,-1,-1,-1,-1
1144691,-1,-1,-1,-1
1144708,-1,-1,-1,-1
1144723,120.921,479.393,31.15737,67.35439
1144739,121.0669,478.2054,31.18798,67.30384
1144754,119.8566,477.8408,30.93353,67.28828
1144773,120.1427,476.9423,30.99382,67.24985
1144792,121.131,475.1401,31.2014,67.17239
1144809,121.4315,473.2219,31.26435,67.08939
1144823,121.0647,470.9313,31.1875,66.98954
1144839,120.7467,467.6702,31.12079,66.84594
1144856,120.1726,462.334,31.00011,66.60728
1144879,119.4712,456.7673,30.85224,66.35332
1144895,118.1719,449.6405,30.57712,66.02052
1144908,121.139,436.6533,31.20308,65.39083
1144934,123.8797,425.8519,31.77401,64.84306
1144945,126.6451,415.7063,32.34303,64.30738
1144961,129.7605,402.6208,32.97561,63.58432
1144976,131.8942,391.3208,33.4037,62.9289
1144991,133.6564,375.4059,33.7541,61.95325
1145009,136.0728,360.2336,34.22995,60.96117
1145026,137.2091,348.7929,34.4519,60.16978
1145040,138.9024,335.4396,34.78044,59.19523
