Time Stamp(ms),Intersection,,Angle,
,x,y,x,y
946805.7,275.7112,348.056,54.04299,60.11745
946822.3,274.7522,350.1061,53.94805,60.2626
946839.3,275.378,353.0266,54.01006,60.46717
946855.7,276.4976,355.3917,54.12052,60.63096
946873.2,277.6678,356.2922,54.23536,60.69289
946890.6,277.8418,357.4521,54.25238,60.77231
946906.1,279.3217,357.1593,54.39657,60.7523
946922.1,280.7162,357.265,54.53152,60.75953
946940.4,281.9306,355.908,54.64832,60.6665
946956.4,282.5755,354.2354,54.71008,60.55109
946973.9,283.1418,351.7142,54.76414,60.37556
946990.2,283.621,348.3035,54.8098,60.13504
947006.6,284.3839,345.219,54.88226,59.91447
947023.6,284.9501,343.1302,54.93585,59.76341
947038.8,284.8297,342.0799,54.92447,59.68693
947055.3,284.6363,341.837,54.90616,59.6692
947073.1,284.4391,342.6368,54.88748,59.72753
947089.5,284.0496,344.0167,54.85053,59.82769
947106.8,283.4373,344.5144,54.79231,59.86367
947122.6,282.1818,344.0256,54.6724,59.82833
947144.5,281.2625,343.4496,54.58414,59.7866
947158.4,280.739,344.0603,54.53372,59.83084
947173.6,279.7026,345.8472,54.43352,59.95963
947193.9,278.6974,346.4909,54.33586,60.00578
947209.8,277.1123,347.4233,54.18092,60.0724
947225.8,275.1635,348.1803,53.98882,60.12629
947242,273.0065,349.2163,53.77412,60.19976
947258.1,270.4579,351.6146,53.51757,60.36858
947274.4,266.8255,355.878,53.14648,60.66443
947292.1,261.8102,361.0653,52.62334,61.01721
947306.7,253.6382,367.7597,51.74334,61.46117
947325,244.317,374.9308,50.69594,61.92313
947341.5,234.66,384.5639,49.55915,62.52243
947358.4,224.7502,394.8095,48.33486,63.13444
947374.6,212.6664,406.3578,46.75809,63.79464
947391.7,200.8881,413.1766,45.12693,64.17049
947408.9,190.9969,415.4712,43.68094,64.29471
947425.3,180.1181,420.2586,42.00589,64.55034
947442.5,168.5455,430.7055,40.12177,65.092
947460.7,158.1381,441.1167,38.33308,65.61071
947476.8,149.2,449.1494,36.72294,65.99725
947493,140.406,457.2195,35.07001,66.37415
947509.5,135.4276,463.8947,34.10343,66.67757
947525.6,129.0678,472.3018,32.83574,67.04938
947543.2,125.1845,479.3639,32.04338,67.35315
947561.8,-1,-1,-1,-1
947578.7,-1,-1,-1,-1
947594.3,-1,-1,-1,-1
947609.6,-1,-1,-1,-1
947624.9,-1,-1,-1,-1
947641.6,-1,-1,-1,-1
947661.4,-1,-1,-1,-1
947678.5,155.2633,475.1625,37.82278,67.17336
947693.6,163.8615,469.0801,39.32802,66.90823
947712.1,173.6768,462.5244,40.97053,66.61588
947730.4,183.0837,456.583,42.47157,66.34483
947746.2,193.3623,450.3643,44.03326,66.05472
947759.7,205.3166,442.6409,45.75151,65.68495
947776.6,217.722,434.5046,47.42933,65.28365
947794.4,229.0125,428.2064,48.86881,64.96439
947811.3,243.8409,422.4525,50.64116,64.66591
947829.1,256.8898,419.7975,52.09767,64.52592
947845.9,270.0173,416.1516,53.4729,64.33134
947861.6,286.8492,409.4102,55.11462,63.96414
947879.2,299.3489,403.1791,56.25245,63.61594
947894,312.7313,397.2744,57.4,63.27793
947910.3,324.5606,393.139,58.35789,63.03638
947926.9,334.8185,390.0452,59.1485,62.85301
947942.6,346.3829,387.4777,59.99805,62.69909
947960.3,356.6664,383.7515,60.71856,62.4728
947975.6,367.0744,380.2059,61.4163,62.25425
947996.2,374.4446,378.0735,61.89223,62.12127
948013.1,380.3418,377.6003,62.26268,62.0916
948028.8,385.0065,377.1306,62.5494,62.06208
948043.6,389.6179,376.8481,62.82751,62.04432
948060.2,392.7986,376.8393,63.01632,62.04376
948077.1,395.3651,377.0763,63.16691,62.05867
948095.5,398.2495,376.4997,63.3343,62.02236
948111.7,400.6454,375.7794,63.47188,61.97688
948127.1,402.5356,375.5068,63.57949,61.95963
948144.8,404.7101,375.1334,63.7023,61.93597
948160.7,406.6006,373.9807,63.8082,61.86271
948176.3,408.6325,372.8713,63.92115,61.79186
948192.1,411.3571,371.6742,64.07118,61.71505
948211,414.8721,370.5331,64.26239,61.64148
948227.4,418.8858,369.4509,64.47752,61.57137
948248.6,421.8182,368.5935,64.6326,61.5156
948263,424.7043,367.5649,64.78351,61.44843
948276.6,428.1092,366.4894,64.9594,61.37789
948291.9,431.8997,365.4546,65.15254,61.30972
948309.9,435.6213,364.0524,65.33946,61.21686
948326.3,439.0787,362.8179,65.51077,61.13465
948343,441.938,361.4201,65.65076,61.04106
948362.6,444.8876,359.9256,65.79362,60.94037
948376.6,447.8247,358.2966,65.9343,60.82988
948392.8,450.8139,356.6272,66.07591,60.71587
948410.1,453.4908,354.9761,66.20141,60.60229
948427.8,457.122,352.7158,66.36966,60.44552
948443.7,460.038,350.4443,66.50317,60.28642
948460.5,461.5984,348.1115,66.57402,60.12141
948477.4,463.5798,346.234,66.66341,59.98738
948493.4,465.7844,344.5358,66.76213,59.86521
948511.2,467.8656,343.0925,66.85459,59.76067
948528.7,469.6657,341.8053,66.93401,59.66689
948545.7,470.5897,341.1301,66.97457,59.61747
948566.4,471.7775,340.4399,67.02652,59.56682
948578.1,473.0627,339.8779,67.08247,59.52546
948592.6,474.2239,339.4627,67.13282,59.49484
948609.6,475.0301,339.1584,67.16764,59.47236
948628.1,475.7766,338.4024,67.1998,59.41639
948644.6,477.0331,337.3763,67.25374,59.34012
948661,478.5995,336.6013,67.32064,59.28229
948677.3,479.907,335.974,67.37619,59.23533
948693.3,480.5916,334.7448,67.40518,59.14294
948710.8,481.1458,333.133,67.4286,59.02105
948726.9,481.4045,331.4104,67.43951,58.8898
948744.3,481.781,329.9064,67.45538,58.77439
948760.8,482.6034,327.9156,67.48995,58.62044
948777.9,483.6169,325.775,67.53244,58.45338
948793.4,484.7546,323.8509,67.57994,58.30184
948811.2,485.8118,322.0514,67.62392,58.15894
948828.4,486.8237,319.638,67.66585,57.96546
948844.8,487.7696,317.2987,67.70492,57.77591
948860.4,488.2784,314.472,67.72588,57.54419
948877.2,488.6836,311.6461,67.74255,57.30954
948893.6,489.324,308.5098,67.76883,57.04556
948910.8,489.7411,305.9609,67.78593,56.82823
948928.2,489.8516,303.2968,67.79044,56.59834
948944.1,489.9759,300.2599,67.79553,56.33283
948961.2,490.0165,297.7482,67.7972,56.1104
948978.3,490.1188,294.9753,67.80138,55.86183
948995.5,490.0208,292.0911,67.79737,55.59986
949011.8,489.8518,289.0864,67.79046,55.32317
949030.4,489.8331,285.6819,67.78969,55.00493
949047.8,489.4616,282.6324,67.77448,54.71552
949062.9,488.7838,279.6062,67.74666,54.42417
949079.1,487.4785,276.3631,67.69291,54.10728
949094.9,486.3624,273.2984,67.64675,53.80331
949113,485.2089,270.8987,67.59885,53.56217
949129.8,484.0471,268.7123,67.55042,53.34005
949146.3,482.8636,266.9415,67.50088,53.15843
949161.6,481.9326,265.7117,67.46175,53.03139
949179.8,481.1577,264.7498,67.4291,52.9315
949195.8,479.6449,264.1149,67.36508,52.86531
949213.3,477.3408,263.4529,67.26691,52.79609
949232.9,474.9818,262.841,67.16556,52.7319
949246.4,472.92,262.3263,67.07628,52.67777
949264.8,471.1411,262.1582,66.99872,52.66006
949281.8,469.4185,262.1915,66.92313,52.66357
949295.3,467.1324,262.0516,66.8221,52.64882
949313.1,465.1962,261.8926,66.73587,52.63205
949331.6,463.4698,261.6635,66.65847,52.60786
949349.9,461.8183,261.373,66.58398,52.57715
949368.5,460.4454,261.3783,66.52171,52.57771
949383.5,458.6161,261.3844,66.43824,52.57835
949401.4,457.2524,261.0591,66.37566,52.54391
949417.8,456.5512,260.7969,66.34336,52.51611
949434.1,455.738,260.675,66.3058,52.50317
949450.9,454.6415,260.5865,66.25497,52.49379
949467.4,453.3332,259.9465,66.19405,52.42571
949486.3,452.7065,259.3877,66.16476,52.3661
949500.3,452.5694,259.168,66.15835,52.34262
949515.6,452.3054,258.9851,66.14599,52.32306
949535,451.9545,258.7677,66.12954,52.29978
949551.6,451.7524,258.2593,66.12005,52.24524
949571.3,451.6602,258.2111,66.11572,52.24007
949586.8,450.9625,258.109,66.08291,52.2291
949601.6,449.5414,257.9874,66.01582,52.21602
949618.9,447.9297,257.7338,65.9393,52.18874
949634.4,446.4221,257.1722,65.86731,52.12819
949651.3,444.7668,257.042,65.7878,52.11412
949667.3,441.5454,257.2239,65.63163,52.13377
949684.8,437.8773,257.2996,65.4515,52.14193
949701.5,433.9121,257.3022,65.25394,52.14221
949716.8,429.0982,257.0148,65.01006,52.11119
949733.4,424.8398,256.7591,64.79055,52.08354
949751.3,420.119,256.2608,64.54296,52.02956
949767.6,414.4186,255.8908,64.23787,51.98941
949783.9,408.9594,255.5244,63.93924,51.94957
949800,403.5065,255.0382,63.63446,51.89659
949815.6,396.3208,254.3031,63.22259,51.81625
949835.1,390.731,253.7254,62.89386,51.75292
949850.1,384.9466,253.5867,62.54575,51.73769
949866.9,379.6577,253.0504,62.22017,51.67869
949884.9,375.4468,252.4471,61.95583,51.61214
949901.3,370.6986,251.7844,61.65217,51.53881
949916.7,366.7149,251.4056,61.39271,51.4968
949934.3,362.9395,251.0682,61.14277,51.4593
949951.1,359.3558,250.688,60.90181,51.41698
949967.5,356.102,249.9425,60.67982,51.33376
949985.3,353.5279,249.4507,60.50202,51.2787
950000.3,350.7208,248.9489,60.30587,51.22238
950018.3,348.9574,248.7984,60.18143,51.20546
950034.7,347.4395,248.5345,60.07356,51.17577
950054.4,345.6966,247.937,59.94881,51.10839
950068.3,344.1397,247.334,59.83659,51.04019
950083.5,342.9113,246.9362,59.74751,50.9951
950098.9,341.5266,246.457,59.6465,50.94065
950115.5,339.8564,245.9897,59.52388,50.88744
950133.2,338.2313,245.5453,59.40369,50.83671
950150.4,336.4646,245.2543,59.27206,50.80345
950167.7,334.6082,244.9096,59.13265,50.76397
950185.1,333.2043,244.5309,59.02645,50.72052
950199.7,331.5055,244.0544,58.89707,50.66575
950219.9,329.9327,243.8627,58.77642,50.64368
950233.8,327.9968,243.5399,58.62675,50.60645
950251.3,326.8531,243.2969,58.53771,50.5784
950268,325.5763,243.0448,58.43779,50.54926
950285.9,323.9598,242.8365,58.31045,50.52515
950302.4,323.2596,242.7659,58.25501,50.51698
950317.5,323.0172,242.7642,58.23577,50.51678
950333.2,323.1501,242.8789,58.24633,50.53006
950352.3,323.3596,242.7098,58.26294,50.51048
950367.8,324.2937,242.3078,58.33683,50.46386
950384.1,324.9691,242.4263,58.39006,50.4776
950401.6,325.8991,242.7717,58.4631,50.51764
950418.3,327.1406,243.1034,58.56014,50.55603
950436.1,328.0994,243.2802,58.63471,50.57647
950454,328.8815,243.3146,58.6953,50.58044
950469.8,329.9604,243.5767,58.77855,50.6107
950485.9,331.1398,243.6587,58.86909,50.62016
950503.4,332.3016,243.4388,58.95783,50.59479
950519.8,333.2268,243.4579,59.02816,50.597
950536.8,334.3949,243.6092,59.11656,50.61445
950553.7,335.6144,243.8217,59.20836,50.63895
950570.3,336.8104,244.0491,59.29791,50.66513
950585.3,337.6863,243.9329,59.3632,50.65175
950601.9,338.337,243.8627,59.41154,50.64368
950619.3,338.9081,243.6398,59.45385,50.61798
950634.8,339.9832,243.4737,59.53322,50.59882
950654.4,340.6852,243.6229,59.58484,50.61603
950671.1,341.0616,243.7189,59.61246,50.62709
950687.5,341.1134,243.4393,59.61625,50.59484
950704,341.5601,243.4772,59.64896,50.59922
950721.6,341.655,243.3259,59.6559,50.58175
950737.3,341.6651,243.3199,59.65664,50.58105
950752.5,341.5472,243.3786,59.64801,50.58784
950770.9,341.4143,243.3303,59.63829,50.58225
950788.1,341.2852,243.2038,59.62884,50.56763
950804.3,341.1082,243.1285,59.61587,50.55894
950821.4,340.9568,243.2466,59.60477,50.57258
950838.3,340.6207,243.2952,59.5801,50.57821
950854.9,340.4585,243.1238,59.56819,50.55839
950871.3,340.4858,243.0325,59.57019,50.54784
950893.9,340.5989,243.1634,59.5785,50.56297
950909,340.551,243.0034,59.57499,50.54446
950923.2,340.5669,242.979,59.57615,50.54165
950936.7,340.7241,243.0764,59.5877,50.55291
950955.9,340.8248,243.1454,59.59509,50.56089
950973.6,340.9772,243.2692,59.60627,50.57519
950990.1,340.9147,243.1676,59.60168,50.56346
951007.5,340.7206,243.0807,59.58744,50.55341
951023.4,340.9243,243.2073,59.60239,50.56805
951039.4,341.1188,243.2407,59.61665,50.5719
951057.4,340.8883,243.1089,59.59975,50.55667
951073.8,340.4263,243.0373,59.56582,50.54839
951091.3,339.9693,243.0816,59.5322,50.55352
951113.4,339.4881,243.0325,59.49672,50.54783
951126.3,338.7893,243.0064,59.44505,50.54481
951141.5,337.399,242.9716,59.34181,50.54078
951158.1,336.0247,242.9459,59.23913,50.53782
951173.2,334.0659,243.0282,59.09171,50.54733
951191.9,331.5562,243.3175,58.90094,50.58078
951207,328.9328,243.7268,58.69928,50.62801
951225.1,326.0329,244.4201,58.47359,50.7078
951240.7,321.5466,245.3623,58.11864,50.8158
951257,316.6244,246.2467,57.7209,50.91672
951274.4,309.8937,247.1122,57.1625,51.01506
951291.9,303.77,247.6978,56.63938,51.08136
951308.7,297.583,248.3235,56.09569,51.15199
951323.7,291.247,248.6947,55.52253,51.1938
951340.6,284.1921,249.0416,54.86406,51.2328
951358.6,277.1282,248.9192,54.18248,51.21904
951374.8,271.2253,248.9503,53.59514,51.22254
951391.1,265.4326,249.0147,53.00245,51.22977
951409.1,260.1557,249.186,52.44798,51.24901
951423.6,254.3462,249.5766,51.82097,51.29281
951440.8,249.4288,249.7447,51.27624,51.31163
951457.3,244.5112,249.663,50.71826,51.30248
951474.6,240.3939,249.4933,50.24063,51.28347
951491.4,236.3589,249.1745,49.76308,51.24772
951507.3,232.6769,248.9222,49.31894,51.21938
951524.3,229.0612,249.114,48.87484,51.24093
951541.2,225.8349,249.3175,48.47181,51.26377
951558.3,223.167,249.2612,48.13363,51.25745
951574.5,220.6667,249.3043,47.81259,51.26228
951591.9,218.4889,249.258,47.52969,51.25709
951609.3,216.0504,249.3738,47.20926,51.27008
951625.5,213.9677,249.2827,46.93249,51.25986
951641.3,211.9491,249.259,46.66147,51.2572
951658.2,210.3232,249.4253,46.44118,51.27586
951674.7,208.5286,249.6904,46.19596,51.30555
951692.4,206.5094,249.8202,45.91739,51.32008
951710.3,205.0696,249.852,45.71704,51.32364
951724.4,203.5629,249.9489,45.50583,51.33448
951741.4,202.0062,250.0686,45.28593,51.34786
951758.5,200.5349,250.4033,45.07652,51.38523
951774.1,199.0973,250.8803,44.87041,51.4384
951791.8,197.758,251.3141,44.67704,51.48663
951808.4,196.3657,251.5734,44.47467,51.51542
951824.3,195.173,251.7255,44.30017,51.53229
951840.9,194.3384,251.9384,44.17744,51.55588
951858.1,193.5006,252.2535,44.05375,51.59075
951876.8,192.63,252.3948,43.92464,51.60637
951892.7,191.6899,252.5026,43.78459,51.61827
951909.2,191.0109,252.8073,43.68304,51.6519
951926.2,190.5348,253.0203,43.61162,51.67537
951942.5,190.3319,253.0807,43.58114,51.68203
951958.8,190.0845,252.8997,43.54393,51.66209
951976.8,189.6638,252.5168,43.48053,51.61985
951995.6,189.6327,252.2005,43.47584,51.58489
952008.3,189.446,251.8732,43.44767,51.54866
952026.4,189.7609,251.3883,43.49517,51.49488
952042.4,189.856,251.3179,43.50951,51.48705
952058.3,190.0031,251.1136,43.53166,51.46435
952074.6,190.2072,250.9396,43.56238,51.44499
952094.1,190.6197,250.6831,43.62437,51.41644
952110.3,191.4206,250.5608,43.74436,51.40281
952128.9,191.9016,250.389,43.81618,51.38364
952144.9,192.3072,250.4139,43.87662,51.38642
952160.5,192.5449,250.7169,43.91198,51.42019
952177.3,192.6224,251.1232,43.9235,51.46542
952193.6,192.7646,251.5238,43.94464,51.50992
952210,192.7525,251.9411,43.94283,51.55618
952227.9,193.3691,251.9142,44.03428,51.5532
952244.8,194.164,251.8705,44.15173,51.54836
952259.6,194.8371,252.0956,44.25084,51.57328
952276.3,194.8811,252.3833,44.25731,51.60509
952293.6,195.0743,252.5676,44.28569,51.62545
952310.5,195.3294,252.7819,44.32311,51.6491
952326.2,195.4908,253.1427,44.34677,51.68886
952342.7,195.4663,253.6562,44.34319,51.74533
952359.9,195.4543,253.9082,44.34143,51.77298
952375.8,195.4149,254.1256,44.33565,51.79681
952393.5,195.3859,254.0725,44.33139,51.79099
952409.6,195.3901,254.1675,44.33201,51.80141
952426.8,195.5152,254.1024,44.35034,51.79427
952444.4,195.3121,254.0574,44.32058,51.78934
952461.8,195.5192,254.228,44.35093,51.80803
952478.3,195.863,254.6905,44.40125,51.85863
952496.3,195.9181,254.8192,44.4093,51.87269
952513.8,196.237,254.9473,44.45589,51.88668
952533.2,196.9508,254.6752,44.55989,51.85696
952546.4,198.129,254.5291,44.73074,51.84099
952563.6,199.2795,254.5428,44.89661,51.84248
952579.4,200.7971,254.8979,45.11395,51.88128
952595.1,203.4385,255.4504,45.48832,51.94151
952613.4,205.8465,256.0461,45.82532,52.00628
952628.8,209.7696,256.9414,46.36578,52.10326
952651.5,213.2484,258.0931,46.83622,52.22739
952665.5,216.6714,259.9766,47.29124,52.42892
952681.9,219.8214,261.8899,47.70315,52.63176
952696.3,223.0042,263.4807,48.11284,52.79899
952711.8,226.1994,264.7507,48.51767,52.93159
952729.1,229.4306,265.78,48.92058,53.03846
952747.6,232.0716,266.4962,49.24513,53.11251
952762.8,233.9147,266.8693,49.46914,53.15099
952779.5,236.2528,267.4162,49.75039,53.20726
952795.6,238.9027,268.0112,50.06524,53.26832
952813.4,240.789,268.4657,50.28688,53.31484
952830.9,242.6179,268.8005,50.49982,53.34904
952847.6,244.7032,269.0793,50.7403,53.37749
952863.1,246.7762,269.3371,50.97694,53.40376
952881.2,248.344,269.3469,51.15431,53.40475
952899.1,249.6749,269.339,51.30382,53.40395
952914.3,251.0841,269.221,51.46107,53.39193
952938,252.4328,269.3235,51.61057,53.40237
952956.9,253.6183,269.7521,51.74115,53.44596
952975.6,254.5573,269.8418,51.84407,53.45508
952991.8,254.8557,270.0781,51.87667,53.47906
953000.8,255.1648,270.0668,51.9104,53.47793
953012.3,255.4404,269.957,51.94042,53.46678
953029.5,255.6274,269.6562,51.96077,53.43622
953045,255.7998,269.4482,51.97952,53.41506
953061.6,255.9485,269.2993,51.99568,53.3999
953078.8,256.0887,269.4456,52.0109,53.4148
953094.6,256.0576,269.8349,52.00752,53.45438
953115.5,255.9117,270.2156,51.99168,53.49302
953132.5,255.9012,270.3489,51.99054,53.50653
953147.1,255.7152,270.5656,51.97032,53.52848
953164.1,255.5444,270.8006,51.95174,53.55225
953180.9,255.2588,271.1268,51.92064,53.58521
953199,254.7592,271.4965,51.86613,53.6225
953212.7,253.7511,271.7895,51.75574,53.652
953229.7,252.5221,272.1732,51.62043,53.69058
953249.8,251.6463,272.3853,51.52351,53.71187
953266.5,251.0975,272.6083,51.46256,53.73424
953282,250.5844,272.8583,51.40543,53.75929
953301.3,250.1261,273.1005,51.35429,53.78352
953314.9,249.7838,273.5601,51.31601,53.82944
953330,249.6118,274.089,51.29675,53.88215
953347.4,249.5805,274.5378,51.29324,53.92677
953363.3,249.3718,275.3068,51.26985,54.00301
953380.6,248.6092,276.3777,51.18418,54.10872
953403.9,248.0589,277.2303,51.12215,54.1925
953415.8,247.0869,278.6646,51.01219,54.33267
953431.5,245.6437,280.2973,50.84795,54.49108
953451.7,243.7585,282.3126,50.63166,54.68492
953470.9,241.0572,284.9908,50.31823,54.93971
953484.1,238.7413,287.5326,50.04618,55.17855
953497.6,236.2942,290.6156,49.75534,55.46447
953513.3,233.1311,294.3717,49.37416,55.80729
953531,229.6684,297.9521,48.94998,56.12856
953545.9,224.2741,302.1898,48.27451,56.50198
953562.6,218.6684,306.6138,47.55313,56.88414
953582.3,211.5494,311.7385,46.60748,57.31726
953596.9,203.9214,317.3204,45.55624,57.77768
953613,195.2663,323.006,44.31387,58.23489
953630,187.3593,328.7122,43.13092,58.68221
953648.3,180.5501,333.402,42.07416,59.04145
953665.1,174.6552,337.8598,41.12992,59.3761
953682.1,169.252,342.4033,40.2399,59.71052
953699.1,164.8527,346.2321,39.49752,59.98724
953714.9,162.6588,349.4465,39.12124,60.21604
953731.6,160.2684,352.84,38.70667,60.45417
953749.9,158.9622,356.0441,38.47807,60.67585
953767.6,156.4294,358.5851,38.03062,60.84951
953784.8,155.0656,360.2688,37.78743,60.96355
953800.9,154.7944,361.1618,37.73887,61.0237
953816.9,154.1477,362.4951,37.62283,61.11309
953832,153.2269,364.1987,37.45697,61.22657
953849.9,152.7138,365.7127,37.36423,61.32675
953867.3,152.1481,366.6519,37.26171,61.38857
953882,151.561,367.5511,37.15502,61.44753
953900.6,151.4462,367.8775,37.13414,61.46888
953915.8,150.9111,368.6078,37.03658,61.51654
953931.4,150.1308,368.9884,36.89387,61.54131
953948.9,149.5961,368.6061,36.79578,61.51643
953969.3,149.9336,368.1575,36.85772,61.48716
953984.7,150.2168,367.4206,36.90962,61.43899
954002.7,150.6,366.6506,36.97974,61.38848
954018.8,150.6911,364.1918,36.9964,61.22612
954032.5,151.6952,362.1868,37.17945,61.09246
954050.6,152.9699,359.3281,37.41055,60.89994
954068.6,154.3053,355.3703,37.65113,60.62948
954086.4,155.3407,352.0233,37.83661,60.39718
954103.6,156.625,347.5778,38.06538,60.08342
954123.6,158.3926,341.5031,38.37793,59.64479
954139.3,159.4872,337.4224,38.57013,59.34355
954150.3,161.5807,328.8714,38.93486,58.69453
954169.4,163.612,319.6147,39.28522,57.96358
954186.9,167.0516,307.1499,39.8706,56.92992
954203.9,170.4556,295.648,40.44022,55.92243
954219.6,173.2196,285.9092,40.89578,55.02634
954233.7,176.0354,275.1823,41.35349,53.99068
954251.8,177.691,267.5071,41.61964,53.21661
954269.4,178.7353,260.5129,41.78641,52.48597
954286.4,179.6895,254.597,41.93803,51.84841
954301.7,180.3567,248.4272,42.04362,51.16368
954321.8,180.2095,243.901,42.02036,50.64808
954336.2,179.842,239.7189,41.9622,50.1614
954351.8,179.2446,235.6816,41.86743,49.68198
