Time Stamp(ms),Intersection,,Angle,
,x,y,x,y
893511.1,312.7079,264.3133,57.39806,52.88602
893526.4,312.3811,263.7297,57.37085,52.82506
893540.1,311.9017,262.2923,57.33089,52.67419
893557.4,311.7317,261.1687,57.31669,52.55552
893573.9,311.6201,260.4738,57.30737,52.48181
893592.2,311.4233,259.3143,57.29091,52.35826
893608.8,310.9904,257.2015,57.25466,52.13135
893625.1,310.5671,254.736,57.21915,51.8636
893642.4,310.0859,253.8594,57.17869,51.76762
893659.5,309.2283,253.4741,57.10637,51.72531
893676.3,307.8789,252.3351,56.992,51.59976
893698.4,307.471,251.9079,56.95729,51.5525
893712.1,307.489,253.3088,56.95882,51.70714
893727.3,307.1978,254.6944,56.93401,51.85905
893742.9,306.791,255.4081,56.89928,51.9369
893760.5,306.924,254.952,56.91065,51.88718
893776.6,307.2421,254.4208,56.93779,51.82914
893792.5,307.5311,254.5019,56.96241,51.83801
893810.6,307.4506,255.168,56.95555,51.91075
893828.3,307.4223,256.5174,56.95314,52.05738
893844.5,307.0685,258.2246,56.92298,52.24152
893860.2,306.244,259.0211,56.85249,52.3269
893877.8,305.3471,260.5424,56.77551,52.4891
893894.4,304.3134,262.1431,56.68639,52.65847
893909.9,302.9493,263.2316,56.56815,52.7729
893927.9,301.3521,263.0282,56.42875,52.75156
893944.3,300.228,262.7081,56.33002,52.71794
893960.1,299.1408,262.8996,56.23404,52.73805
893981.9,298.0245,262.9997,56.135,52.74857
893998.3,296.5997,262.9178,56.00784,52.73997
894011.6,295.0765,262.7065,55.87096,52.71777
894028.3,293.0747,262.9352,55.6896,52.74179
894044.1,290.8819,262.8777,55.48898,52.73575
894062.1,288.0869,262.3267,55.23026,52.67781
894077.6,285.377,262.5226,54.97618,52.69843
894094.3,281.7544,262.1685,54.63142,52.66114
894111.3,278.7941,260.9784,54.34528,52.53536
894127.3,276.7287,260.316,54.14325,52.46503
894145.1,274.324,260.2434,53.90552,52.45731
894160.4,270.8378,260.6053,53.55601,52.49578
894177.7,268.1341,260.9422,53.28091,52.53152
894194,264.8859,261.058,52.94566,52.54379
894211.6,262.7696,261.4939,52.7244,52.58994
894230.8,259.8412,261.3183,52.41449,52.57135
894246.6,256.7825,260.5543,52.08607,52.49036
894262.9,254.2958,259.1897,51.81546,52.34494
894280.3,252.0665,257.1348,51.57006,52.12415
894296,250.4081,253.9496,51.38577,51.77752
894313.6,248.6057,250.4351,51.18378,51.38878
894330.8,247.9074,246.5108,51.10504,50.94677
894346.3,247.0305,240.8832,51.0058,50.2979
894363.9,246.021,235.9397,50.891,49.71291
894378,244.9653,229.9024,50.77034,48.97887
894395.9,243.3925,224.6163,50.58944,48.31789
894414,241.5571,219.7234,50.37654,47.69043
894430.4,239.5016,215.3657,50.13585,47.11858
894446.2,237.7003,211.5833,49.92289,46.61206
894462.9,236.2598,209.1142,49.75123,46.27622
894478.8,234.3537,206.6261,49.52219,45.93357
894497,232.902,204.7454,49.34632,45.67173
894513.3,231.5532,202.3114,49.18177,45.32917
894529.8,229.6115,199.6899,48.94295,44.95555
894549.5,228.5601,198.1111,48.81266,44.72816
894564.1,227.1367,197.1294,48.63521,44.58585
894579.3,225.9728,196.1728,48.48917,44.44651
894597.6,224.9168,196.0627,48.35594,44.43043
894616.6,224.3124,195.5411,48.27937,44.35414
894629.2,224.072,195.3799,48.24884,44.33051
894649,223.905,195.3189,48.22763,44.32158
894663.8,223.8547,195.4481,48.22123,44.34051
894680.1,224.2431,195.2126,48.27058,44.30598
894698.8,224.6086,194.9264,48.31693,44.26397
894712.5,225.2852,194.3876,48.40249,44.18469
894730.8,225.9506,193.8655,48.48638,44.10769
894747.1,226.5734,193.1854,48.56464,44.00706
894771.3,227.6084,192.307,48.69416,43.8766
894783.1,228.4169,191.6074,48.79487,43.77228
894794.8,229.2919,190.7038,48.90341,43.63699
894813.4,229.7898,189.9975,48.96498,43.53083
894830.6,230.4619,189.5764,49.04782,43.46734
894846.1,231.4827,188.6133,49.17314,43.32166
894862.8,232.3422,188.0299,49.27815,43.23308
894878.8,233.3565,187.6336,49.40152,43.17276
894895.8,234.9361,187.0378,49.5924,43.08184
894915.1,236.0934,187.1082,49.73132,43.09259
894927.4,237.7742,187.3499,49.93166,43.1295
894944.9,239.4736,187.3344,50.13255,43.12713
894961.3,241.4757,187.3703,50.36706,43.1326
894978.5,243.139,187.3854,50.56015,43.13491
894994.8,245.3246,187.3458,50.81148,43.12887
895011.3,247.577,187.3586,51.0677,43.13083
895030.8,250.1306,187.3655,51.35478,43.13187
895047.7,252.7007,187.4536,51.64014,43.14531
895061.7,255.3363,187.5392,51.92909,43.15836
895079.3,258.2523,187.55,52.2445,43.16002
895095.9,260.9827,187.5055,52.53581,43.15323
895113.7,264.062,187.3478,52.85979,43.12917
895131.3,267.1922,187.1276,53.18423,43.09555
895148.2,270.0218,186.5842,53.47335,43.01244
895163.1,273.0588,185.9106,53.77935,42.90908
895178.8,275.9883,185.094,54.07035,42.78333
895197.3,278.8592,184.4439,54.35161,42.68286
895213,282.0109,183.5805,54.65602,42.5489
895228.8,284.823,182.9904,54.92384,42.45702
895253.1,287.3227,182.6239,55.15894,42.39982
895262.3,289.2867,182.9317,55.34174,42.44786
895278.8,291.5523,183.2844,55.55053,42.50282
895296.7,293.4356,183.6217,55.72242,42.55531
895312.9,294.4348,184.232,55.81301,42.65004
895329.9,295.3566,184.9505,55.89621,42.76118
895346.2,296.0201,185.4852,55.95587,42.84365
895361.8,295.8675,186.3022,55.94216,42.96922
895378.4,295.7623,187.5641,55.9327,43.16216
895394.3,295.2962,189.5121,55.89076,43.45765
895412,294.7648,191.6484,55.84283,43.7784
895427.9,293.6879,195.0741,55.74533,44.28566
895446.1,292.6956,197.8005,55.65506,44.68321
895461.6,290.7476,202.4725,55.47662,45.35199
895477.7,288.4939,207.1321,55.26815,46.0036
895493.5,284.5485,213.9437,54.89785,46.92928
895511.3,280.57,221.543,54.51742,47.92556
895530.8,275.8114,232.2715,54.05289,49.26954
895546.9,271.3657,242.9914,53.60931,50.54308
895562.6,266.5309,255.3529,53.11609,51.93089
895580.7,260.7487,267.5633,52.511,53.22237
895596.6,254.8695,279.6858,51.87819,54.43188
895610.8,248.9152,292.6101,51.21859,55.64726
895628.5,245.3744,305.7254,50.81718,56.80802
895644.5,241.2026,319.7619,50.33521,57.97545
895661.3,236.9529,333.6985,49.83398,59.06392
895677.8,233.0339,345.248,49.36234,59.91656
895695.4,229.9974,355.5681,48.9906,60.64311
895712.9,228.0266,363.1829,48.7463,61.159
895727.9,226.7827,369.8779,48.59089,61.59907
895743.7,225.8463,376.8715,48.47325,62.04578
895759.9,225.5301,382.7715,48.4334,62.41271
895777.3,225.1891,388.2028,48.39036,62.74272
895794.3,226.3021,389.2143,48.53058,62.80338
895810.8,226.8878,390.5775,48.60405,62.88473
895827.6,227.4875,391.4635,48.67905,62.93736
895844.3,227.6931,392.3773,48.70473,62.99145
895860.9,227.9349,394.7725,48.73488,63.13227
895877.9,227.5642,397.1883,48.68863,63.27294
895894.3,226.9307,399.1062,48.60942,63.38364
895911.9,226.9812,401.1137,48.61575,63.49862
895927.9,227.1447,402.227,48.63622,63.56198
895945.2,228.3073,402.1003,48.78125,63.55479
895963.9,230.334,402.9937,49.03207,63.60546
895978.7,231.7317,404.8959,49.2036,63.71274
895994.4,233.9598,405.9406,49.47459,63.77132
896014.3,237.8286,406.1464,49.93812,63.78283
896033,241.5332,406.735,50.37377,63.8157
896050.9,246.3328,405.7424,50.92652,63.76023
896067.7,250.8064,404.6177,51.43016,63.6971
896083.1,255.995,402.1656,52.00072,63.55849
896100.3,260.9998,400.5317,52.53762,63.46538
896116.8,265.0599,399.3558,52.96375,63.39799
896133.3,269.9165,396.5099,53.46267,63.23357
896150.6,274.4418,393.6318,53.91723,63.06538
896167.1,278.8667,390.8593,54.35234,62.90149
896183.1,284.6674,387.9276,54.9091,62.72617
896202.1,289.8757,385.2175,55.39623,62.56224
896217.6,295.6752,382.7992,55.92487,62.41441
896232.5,300.6598,380.2518,56.368,62.2571
896250.4,304.8674,377.5592,56.73421,62.08902
896267.1,309.5186,373.9626,57.13088,61.86156
896283,314.3927,371.9686,57.53764,61.73398
896299.6,319.0941,370.7101,57.92157,61.65291
896316.9,324.8258,369.595,58.37878,61.58073
896334.4,329.8931,368.0497,58.77337,61.48013
896351.6,334.7711,366.0589,59.14493,61.34956
896367.3,339.7993,363.8745,59.51967,61.20504
896384.8,344.5361,361.3716,59.86523,61.0378
896400.9,349.6763,359.3406,60.23228,60.90078
896416.6,354.5854,357.6047,60.57531,60.78273
896431.6,359.4,356.0362,60.9048,60.67531
896450.3,363.3429,354.1642,61.16967,60.54616
896467.4,366.5471,351.8563,61.38168,60.3855
896481.6,370.0099,349.3352,61.60762,60.20817
896499.3,372.9125,347.4099,61.79451,60.07145
896516.6,375.1477,345.9217,61.93688,59.96498
896531.9,377.8006,344.4514,62.10416,59.85912
896549.3,380.0145,342.7845,62.24236,59.73828
896567.9,381.3965,341.2662,62.32799,59.62745
896583.4,382.4875,339.7101,62.39525,59.5131
896599.8,383.3319,337.9781,62.4471,59.38489
896615,384.7961,336.4132,62.53658,59.26822
896635.4,385.7724,334.8659,62.59595,59.15207
896650.2,386.432,333.3954,62.63593,59.04095
896666,387.3589,331.0043,62.69192,58.85872
896682.6,388.9563,328.359,62.78793,58.65485
896706,390.9655,325.7885,62.9078,58.45443
896718.9,392.2209,323.035,62.9822,58.23719
896732.1,393.8297,320.3395,63.07701,58.02192
896751.4,396.3278,317.6728,63.22299,57.80636
896764.5,398.7476,313.9291,63.36301,57.49934
896781.6,400.7122,310.367,63.4757,57.20233
896798.4,402.8734,306.9641,63.59864,56.91407
896814.1,405.1129,304.0238,63.72493,56.66135
896831.4,407.1329,300.9991,63.83788,56.3978
896848.1,409.0613,298.2398,63.94487,56.15415
896864.9,410.5603,295.9843,64.02747,55.95265
896881.4,412.07,293.3896,64.11018,55.71824
896901.8,413.5704,290.4382,64.19189,55.44814
896918.1,415.4044,286.1412,64.29111,55.04816
896938.8,416.9705,282.9305,64.37528,54.74399
896954.7,418.403,279.8792,64.45183,54.45063
896967.4,419.9327,276.8539,64.53309,54.15555
896983.1,421.2143,274.3452,64.60081,53.90763
897001,422.3905,271.2995,64.66265,53.60263
897018.8,423.8065,268.8305,64.73675,53.35211
897033.8,424.9202,266.9829,64.79473,53.1627
897049.8,425.6313,265.2227,64.83163,52.98067
897067.4,425.6548,263.8423,64.83285,52.83683
897084.6,425.9013,262.3204,64.8456,52.67715
897101.3,425.6699,260.4072,64.83363,52.47473
897116.6,426.1531,258.5504,64.85863,52.27648
897133.8,426.9288,256.7224,64.89869,52.07956
897150.2,428.0627,254.3983,64.95702,51.82668
897171.1,428.9703,252.6593,65.00352,51.63557
897184,430.0893,250.6188,65.06065,51.40927
897200.7,431.7834,247.8374,65.14665,51.09715
897217.1,433.5099,245.3487,65.23374,50.81424
897236.7,433.9267,242.6923,65.25468,50.50845
897252.2,433.7939,240.4398,65.24801,50.24602
897269.6,432.8579,237.881,65.20092,49.94433
897284.5,431.7896,235.1812,65.14697,49.62189
897300.6,430.0134,232.5763,65.05678,49.30668
897316.4,427.3715,229.9373,64.92149,48.98317
897332.8,422.9866,226.7408,64.69389,48.58563
897349.9,418.4158,223.9785,64.45251,48.23696
897366.8,413.2243,221.4459,64.17308,47.91307
897383.6,408.4691,219.2321,63.9121,47.62658
897400.1,402.9555,217.476,63.60329,47.39706
897417.4,396.6691,216.519,63.24282,47.27114
897433.6,390.8932,216.0432,62.9035,47.20831
897450.8,385.486,216.0668,62.57856,47.21143
897467.8,380.1256,217.2281,62.24926,47.3645
897483.9,375.4731,218.3557,61.9575,47.51229
897501.1,370.9099,219.3648,61.66581,47.64384
897517.8,365.6587,219.6899,61.32319,47.68608
897536.9,360.1136,219.7263,60.95307,47.69081
897551.9,353.7892,219.4591,60.52016,47.65611
897577.1,349.708,219.1189,60.23452,47.61185
897593.2,347.2794,219.022,60.06213,47.59923
897603.7,344.7972,218.5147,59.88408,47.53306
897617.8,341.808,217.6268,59.66708,47.41685
897634.3,339.5457,216.267,59.50097,47.23788
897651.7,337.649,215.3055,59.36042,47.1106
897671.4,335.7143,215.5082,59.21585,47.13748
897687,333.0654,215.7231,59.01591,47.16596
897704.3,330.1851,215.7354,58.79584,47.16759
897719.3,327.1591,214.1675,58.56158,46.95917
897736.1,324.5302,211.3686,58.3555,46.58302
897753.9,322.0943,209.6435,58.16236,46.34856
897768.9,319.5647,209.5503,57.95955,46.33584
897786.3,316.9935,210.0734,57.75103,46.40718
897803.1,313.9053,210.9546,57.49737,46.52694
897818.4,310.7363,211.6331,57.23335,46.6188
897836.3,307.6669,211.7946,56.97397,46.64062
897853.2,304.0119,212.0809,56.66032,46.67924
897870.5,300.1933,212.1611,56.32696,46.69007
897887.4,296.8097,211.1841,56.02663,46.55804
897903.5,294.0599,210.1167,55.77907,46.41308
897919.7,291.0773,209.9924,55.50694,46.39615
897937.1,288.5778,210.5594,55.27595,46.4733
897953.1,286.5128,211.1243,55.08307,46.54994
897970.1,285.4216,210.62,54.98038,46.48153
897986.9,284.372,208.3425,54.88112,46.17039
898004.1,283.5332,208.1547,54.80144,46.14458
898020.4,282.3367,208.5879,54.68723,46.20409
898037,281.033,209.2653,54.56206,46.29689
898053.1,279.9971,208.9914,54.46204,46.2594
898070.9,279.4514,208.528,54.40916,46.19587
898083.5,279.0396,207.7098,54.36916,46.08334
898103,278.5985,207.9588,54.32623,46.11763
898123.1,277.7295,207.9632,54.24139,46.11824
898136.9,276.8975,207.8445,54.15984,46.10189
898153.5,275.9687,207.8826,54.06841,46.10714
898171.9,274.987,207.3872,53.97134,46.03883
898187.6,273.9226,206.7014,53.86557,45.94401
898202.9,273.1877,206.6824,53.79224,45.94137
898220.5,272.4219,206.8985,53.71555,45.97129
898236.6,271.3901,207.2317,53.61177,46.01736
898253.4,269.9588,207.5159,53.46696,46.05661
898271.2,268.4989,207.0174,53.31823,45.98774
898284.1,266.9413,206.0506,53.15841,45.85371
898303.8,265.9301,205.4753,53.054,45.77364
898319.6,264.94,204.9924,52.95128,45.70626
898334.1,263.6843,204.6302,52.82031,45.65561
898350.6,261.2505,202.7335,52.56418,45.38889
898368.8,259.8607,202.1417,52.41656,45.30513
898384.4,257.9101,200.9879,52.20771,45.14115
898401.1,255.8633,200.2083,51.98642,45.02982
898417.1,253.4624,199.1829,51.72403,44.88272
898432.6,249.912,197.8139,51.33035,44.68514
898450.4,246.5905,197.1517,50.95583,44.58908
898467.4,243.5507,196.3527,50.60769,44.47277
898483.3,240.4954,195.283,50.25253,44.31631
898500.4,237.5234,194.3195,49.90187,44.17466
898517.5,234.7023,193.7991,49.56424,44.09787
898533.7,230.8714,193.6229,49.09817,44.07183
898550.6,227.3539,193.414,48.66237,44.04092
898566.9,223.2929,193.8898,48.14968,44.11127
898583.7,218.5166,194.9488,47.53331,44.26725
898600.8,214.3503,195.8,46.98354,44.39204
898617,209.6003,196.5927,46.34267,44.50777
898634.3,205.3533,197.4299,45.75664,44.62949
898650,200.6841,198.7485,45.09782,44.82018
898669.9,195.7054,200.5497,44.37819,45.07864
898686.6,191.9509,202.561,43.82354,45.3645
898705.1,188.0117,205.781,43.23032,45.81622
898722.9,184.7476,208.7123,42.72983,46.22116
898734.6,181.5753,212.5161,42.23556,46.73787
898749.6,177.8568,217.3397,41.64618,47.37917
898768.3,174.5249,220.7487,41.10874,47.82318
898790.9,172.5568,223.1618,40.78709,48.13296
898801.4,171.0949,225.9717,40.54614,48.48904
898821.6,170.3787,229.0709,40.42746,48.87605
898837.3,169.0528,232.1742,40.20663,49.25766
898854.8,168.5416,234.5001,40.12111,49.53987
898871.6,169.2901,236.7466,40.24626,49.80938
898887.5,169.6012,239.0578,40.29815,50.08355
898901.3,169.6736,240.9656,40.3102,50.30753
898921.8,170.1968,241.9342,40.39725,50.42044
898934.4,171.2122,242.8889,40.56555,50.53122
898954.6,172.6343,243.2367,40.79982,50.57145
898969.1,174.4541,243.3765,41.09723,50.58759
898985.6,176.1358,243.6246,41.36969,50.61622
899005.7,178.0592,243.0184,41.67855,50.5462
899021.4,181.0317,242.072,42.15009,50.43647
899038.7,184.4605,241.2088,42.68542,50.33593
899054.2,187.9943,240.3927,43.22766,50.24049
899069.4,191.6199,239.1139,43.77414,50.09016
899085.8,196.3727,237.5206,44.47568,49.90155
899101.8,201.1406,236.4159,45.16292,49.76989
899119,205.9179,235.4873,45.83527,49.65867
899135.2,210.3065,234.1177,46.43892,49.49369
899152.5,213.317,233.0994,46.84542,49.3703
899169.6,215.9073,232.4097,47.19033,49.28638
899184.7,218.1516,231.3766,47.4856,49.16013
899202.5,219.6967,230.7259,47.68696,49.08029
899218.9,220.6355,230.5136,47.80856,49.05418
899235.1,221.2825,231.1858,47.89203,49.13675
899252.2,222.0033,231.5582,47.98471,49.18238
899269.4,221.979,231.6573,47.98159,49.1945
899286.5,221.7635,231.8964,47.95391,49.22374
899306.6,221.5099,232.2676,47.9213,49.26905
899324.1,221.688,232.3356,47.94421,49.27735
899339.9,222.1083,232.1015,47.99818,49.24879
899356.3,222.8493,232.1273,48.09306,49.25193
899380.6,223.4374,232.4988,48.16811,49.29724
899393.6,223.9043,232.7913,48.22754,49.33286
899418.4,225.7493,232.8837,48.46103,49.34409
899434.7,226.787,232.8891,48.59143,49.34474
899446.8,227.9631,233.1311,48.73839,49.37416
899456.2,229.4721,233.8287,48.92572,49.45874
899472.2,231.46,234.5486,49.17035,49.54571
899490,233.4865,235.0375,49.41727,49.60461
899506.8,235.4857,235.5882,49.65847,49.67077
899524.4,237.1456,236.4653,49.85693,49.77579
899539.1,238.0686,237.4179,49.96658,49.88933
899556.3,238.4583,238.5446,50.01273,50.02293
899574.8,238.2105,239.4322,49.9834,50.12767
899590,237.7844,240.1761,49.93288,50.2151
899609.8,236.9881,240.8034,49.83817,50.28857
899626.9,235.9038,241.8165,49.70862,50.40676
899637.8,235.1026,244.3455,49.61244,50.69923
899675.6,234.7301,246.2407,49.5676,50.91603
899688.5,234.6263,247.5521,49.55509,51.06488
899700.8,234.7692,249.7785,49.57231,51.31541
899715.9,234.9298,251.3018,49.59165,51.48527
899726.7,235.1646,252.9538,49.6199,51.66805
899738,235.288,255.1796,49.63473,51.91201
899752.7,235.5972,257.6175,49.67186,52.17621
899770.6,235.9539,260.17,49.71462,52.4495
899788.6,236.0357,262.3515,49.72441,52.68042
899804.3,235.9547,264.3422,49.71471,52.88903
899821.5,236.2234,266.3469,49.74688,53.0971
899839.1,236.7039,268.1768,49.80428,53.28529
899854.2,237.2404,270.169,49.86822,53.48829
899872,237.6181,272.1357,49.91313,53.68681
899889.4,238.1219,273.6606,49.9729,53.83945
899905.1,238.7651,274.7367,50.049,53.94652
899923.7,239.694,275.3567,50.15847,54.00795
899940.3,240.6871,275.7654,50.27496,54.04834
899955.3,241.8744,275.5446,50.41349,54.02654
899970.9,243.4051,275.115,50.5909,53.98402
899988,244.2924,274.7072,50.69312,53.94358
900006,245.5246,274.0575,50.83435,53.87901
900027,247.3302,272.6654,51.03976,53.73996
900039.1,249.0913,271.2966,51.23838,53.60234
900054.2,251.2366,269.764,51.47803,53.44718
900070.9,254.2509,267.2635,51.81054,53.19156
900090.6,257.0361,264.8429,52.11349,52.94118
900104.9,260.0583,262.3237,52.43761,52.67749
900120.9,263.2673,259.4096,52.77663,52.36844
900145,266.66,256.1092,53.12941,52.01312
900159.9,269.5686,253.5725,53.42731,51.73613
900174.7,271.9945,251.1644,53.67263,51.47
900186.9,274.6128,248.5545,53.93421,51.17802
900204.4,276.9988,246.4273,54.16978,50.93727
900220.7,278.8474,244.3614,54.35046,50.70105
900236.4,280.6717,242.1102,54.52723,50.4409
900252.5,282.6596,239.9204,54.71812,50.18508
900272.4,284.0425,238.4558,54.84986,50.01244
900287.8,285.5997,237.2161,54.99718,49.86533
900306.4,287.2023,235.9583,55.14768,49.71515
900322.7,288.7306,235.032,55.29015,49.60394
900339.7,290.3383,233.9753,55.43892,49.47647
900360.8,291.9332,232.6485,55.58541,49.31547
900372.8,293.3668,231.3169,55.71616,49.15283
900391.6,294.6876,229.7345,55.83586,48.95814
900404.7,295.9955,228.1103,55.95366,48.75673
900422.9,297.1368,225.5392,56.05587,48.43455
900443.7,297.9225,224.1884,56.12592,48.26363
900455.4,298.7928,222.121,56.20323,47.99981
900472.3,299.2474,220.1299,56.24348,47.74315
900490.7,299.5485,218.7596,56.27009,47.56502
900506.6,300.1075,216.9987,56.3194,47.33434
900521.5,300.7944,215.2165,56.37983,47.09879
900538.2,301.4795,213.5341,56.4399,46.8745
900555.2,302.2984,211.6877,56.51146,46.62618
900573.4,303.1181,210.0845,56.58282,46.40869
900589.7,304.0573,208.3834,56.66425,46.17602
900606.6,304.9969,206.5706,56.74537,45.92588
900623,306.1585,204.8847,56.84517,45.69121
900649.9,307.7426,203.1062,56.98041,45.44149
900662.5,308.8922,201.587,57.07795,45.22642
900678.8,310.0867,200.1904,57.17875,45.02726
900688.8,311.0694,198.3459,57.26128,44.76208
900720.5,312.277,196.7871,57.36219,44.53608
900735.2,312.9403,195.8128,57.41737,44.39391
900748.4,313.4292,194.8456,57.45795,44.25209
900758.3,314.0245,193.9471,57.50723,44.11974
900773.4,314.8138,192.291,57.57236,43.87422
900791.1,315.337,190.9685,57.61541,43.67668
900808.1,316.0178,189.5881,57.67127,43.46911
900824.5,316.7698,188.5984,57.73278,43.3194
900841.6,317.5819,187.5806,57.79897,43.16468
900856.9,318.5253,186.5676,57.87555,43.0099
900874.3,319.4212,185.5375,57.94798,42.8517
900890.5,320.2708,184.7085,58.0164,42.72379
900907.5,321.3361,183.9285,58.10181,42.60297
900924.6,321.9242,183.2523,58.14879,42.49783
900941.1,322.6511,182.8391,58.20669,42.43341
900958.9,323.0807,182.834,58.24082,42.43261
900973,323.5173,182.7528,58.27544,42.41994
