Time Stamp(ms),Intersection,,Angle,
,x,y,x,y
1633407,281.142,261.6992,54.57256,52.61163
1633447,276.9563,261.7485,54.16561,52.61683
1633471,272.4023,264.0636,53.71358,52.85996
1633516,270.8754,266.9046,53.55981,53.15463
1633539,269.1532,268.3495,53.38502,53.30296
1633569,267.0891,268.5803,53.17363,53.32656
1633601,264.8881,267.9427,52.94589,53.26131
1633636,263.5677,269.4571,52.8081,53.41597
1633670,263.2105,271.2239,52.77069,53.59501
1633702,263.2276,272.3491,52.77248,53.70824
1633734,262.9529,272.9915,52.74366,53.77261
1633763,261.1839,274.2884,52.55713,53.90198
1633801,257.9416,276.6707,52.21109,54.13755
1633837,252.1704,280.7676,51.58155,54.53648
1633863,243.8145,288.7087,50.63812,55.28812
1633897,231.4245,302.7988,49.16601,56.55505
1633929,216.2012,314.1284,47.22919,57.51581
1633961,201.425,323.2051,45.20338,58.25069
1633994,186.0242,334.8403,42.92655,59.15014
1634028,170.1953,347.9979,40.397,60.11332
1634061,155.761,359.4609,37.91163,60.90893
1634092,146.8285,363.1234,36.28398,61.15504
1634123,141.3656,365.9444,35.25375,61.34203
1634156,137.7981,367.6151,34.56647,61.45171
1634189,135.2114,367.9317,34.06093,61.47242
1634223,133.3609,369.6794,33.69554,61.5862
1634254,131.6724,372.575,33.35939,61.77289
1634290,130.017,375.5598,33.02728,61.96298
1634321,131.0515,373.5671,33.23513,61.83633
1634354,132.672,374.7313,33.55871,61.91045
1634381,135.2608,375.5184,34.07064,61.96037
1634414,137.8519,374.1758,34.57691,61.87513
1634445,139.3988,374.1924,34.87626,61.87619
1634477,140.7375,373.4901,35.13357,61.83142
1634512,141.9927,372.6797,35.37337,61.7796
1634541,142.4558,373.1336,35.46148,61.80865
1634573,142.4968,372.2314,35.46926,61.75085
1634606,142.5515,371.3994,35.47965,61.69736
1634642,142.5663,371.7118,35.48247,61.71747
1634672,142.4757,371.0622,35.46526,61.67564
1634708,143.28,369.6119,35.61781,61.58182
1634739,143.7184,369.9941,35.70073,61.6066
1634772,143.9344,369.7493,35.74152,61.59073
1634802,144.0068,369.1381,35.75517,61.55105
1634847,144.2493,369.4269,35.80089,61.56981
1634869,144.4567,368.9532,35.83995,61.53902
1634900,145.2319,367.851,35.98563,61.46715
1634933,145.027,368.0827,35.94719,61.48228
1634965,144.5936,367.0193,35.86573,61.41269
1634997,144.5462,364.9993,35.85681,61.27962
1635030,145.6233,362.2834,36.05897,61.09893
1635064,147.9094,358.6931,36.48466,60.85685
1635095,150.1365,354.4523,36.89492,60.5661
1635125,153.1336,348.9585,37.44012,60.18151
1635160,156.7567,341.9641,38.08876,59.67848
1635192,161.5286,334.7819,38.92584,59.14574
1635223,164.7678,329.0113,39.48302,58.70534
1635258,167.0315,325.3074,39.8672,58.41667
1635293,168.6585,321.3759,40.14068,58.10499
1635323,170.2075,320.1159,40.39903,58.00394
1635354,171.9658,318.408,40.68989,57.86605
1635387,173.6771,316.7409,40.97057,57.73042
1635419,175.2738,313.4598,41.23032,57.46048
1635455,176.9463,312.3617,41.5002,57.36924
1635486,178.0188,309.9992,41.67208,57.17139
1635517,179.384,308.6971,41.88956,57.06143
1635551,179.5809,307.9949,41.92081,57.00186
1635582,180.032,307.6331,41.99228,56.9711
1635615,179.9159,307.6754,41.97389,56.9747
1635647,180.1668,307.2458,42.01361,56.9381
1635677,180.5168,307.1612,42.0689,56.93089
1635710,181.7853,306.5108,42.26853,56.87533
1635742,185.1463,304.9471,42.7914,56.74108
1635776,190.186,302.9035,43.55919,56.56416
1635810,195.8221,299.2445,44.39526,56.24322
1635842,200.8677,294.0824,45.12402,55.7811
1635872,202.8895,296.052,45.41092,55.95873
1635904,205.2349,297.1597,45.74012,56.05792
1635937,206.9715,297.553,45.98139,56.09301
1635970,208.5103,296.5152,46.19344,56.00027
1636004,210.691,296.783,46.49117,56.02425
1636037,213.1862,295.8575,46.82789,55.94126
1636074,215.4046,296.1625,47.12374,55.96865
1636104,216.7047,295.8108,47.29562,55.93707
1636138,217.219,296.042,47.3633,55.95783
1636169,216.4581,295.9911,47.2631,55.95327
1636203,216.3123,295.7912,47.24386,55.93531
1636240,217.1128,295.5152,47.34935,55.91048
1636271,218.7678,295.1551,47.56609,55.87805
1636302,222.3016,294.4373,48.02296,55.81323
1636335,228.1762,293.2333,48.76493,55.70403
1636363,238.7468,290.9423,50.04684,55.49453
1636398,252.7115,287.9246,51.64134,55.21514
1636430,266.5807,286.0341,53.12123,55.03809
1636464,280.0432,284.2004,54.4665,54.86485
1636495,292.3741,283.9503,55.62572,54.8411
1636527,303.021,283.4486,56.57438,54.79339
1636560,312.3505,283.3041,57.36831,54.77962
1636596,320.7291,283.3643,58.05319,54.78536
1636628,328.0545,283.404,58.63123,54.78914
1636659,334.0529,281.7209,59.09072,54.6282
1636693,340.55,280.2786,59.57491,54.48927
1636723,347.8707,281.9029,60.10427,54.64566
1636756,355.0445,281.469,60.60702,54.60401
1636788,361.4457,276.9896,61.04277,54.16888
1636828,368.2293,274.4098,61.49186,53.91405
1636858,372.1159,274.2922,61.74344,53.90236
1636888,374.6331,273.8909,61.90422,53.86242
1636923,375.251,273.3336,61.94343,53.80682
1636958,375.7841,273.3499,61.97717,53.80845
1636988,375.6734,275.495,61.97018,54.02163
1637019,376.7332,276.8842,62.03708,54.15854
1637051,376.6459,278.885,62.03158,54.35412
1637090,377.0328,280.3954,62.05593,54.50056
1637123,377.7275,282.5593,62.09958,54.70853
1637151,379.1855,282.9655,62.19076,54.74733
1637183,380.7347,282.435,62.28704,54.69664
1637215,382.6562,283.4371,62.40562,54.79229
1637249,383.7821,282.974,62.47467,54.74814
1637283,385.5405,283.5853,62.58187,54.8064
1637314,387.3694,283.8799,62.69255,54.83441
1637347,388.3516,284.9022,62.75166,54.93132
1637384,389.8409,286.4059,62.84082,55.07304
1637415,390.4632,286.7162,62.87792,55.10215
1637443,390.3729,286.2299,62.87254,55.0565
1637487,390.1883,286.3999,62.86155,55.07247
1637522,390.1116,286.299,62.85698,55.063
1637537,389.7454,286.2736,62.83512,55.0606
1637558,389.4328,286.646,62.81645,55.09557
1637581,389.2523,286.7365,62.80565,55.10405
1637608,388.9792,286.7533,62.7893,55.10563
1637635,388.7401,286.9629,62.77497,55.12527
1637671,388.6257,287.302,62.76811,55.157
1637711,388.4143,287.4251,62.75542,55.16851
1637735,388.5503,287.7038,62.76359,55.19454
1637765,388.7665,287.545,62.77655,55.17971
1637810,389.5233,287.2625,62.82185,55.15331
1637835,390.6664,287.1715,62.89002,55.14479
1637867,392.9688,287.0441,63.02635,55.13287
1637903,395.1324,286.8773,63.15332,55.11726
1637944,398.4579,285.4426,63.34632,54.98236
1637975,403.1925,286.1655,63.6167,55.05045
1637999,408.9441,288.5106,63.93839,55.2697
1638032,415.2415,290.1439,64.28233,55.421
1638063,423.1346,292.8229,64.70164,55.66666
1638097,429.6185,296.9828,65.03664,56.04211
1638130,438.2299,301.6174,65.46892,56.45197
1638161,442.3191,305.4637,65.66931,56.78553
1638198,446.175,310.3347,65.85548,57.19962
1638237,449.2675,314.3765,66.00285,57.5363
1638276,451.8068,317.9286,66.1226,57.82715
1638290,452.7844,319.4785,66.16841,57.9526
1638309,453.2204,320.8389,66.18878,58.062
1638328,454.5525,321.8926,66.25083,58.14627
1638347,456.1891,323.2545,66.32665,58.25461
1638368,457.8727,324.6981,66.40417,58.36872
1638392,459.5229,325.8862,66.47969,58.46209
1638421,460.4748,327.0188,66.52304,58.55064
1638456,460.1391,328.1339,66.50777,58.63739
1638487,458.3582,328.6681,66.42643,58.67879
1638521,457.4282,329.7834,66.38375,58.76492
1638555,455.947,330.499,66.31546,58.81995
1638596,454.8303,331.298,66.26373,58.8812
1638618,453.832,331.6224,66.21731,58.90601
1638651,452.8508,332.0984,66.17152,58.94234
1638686,451.9769,331.764,66.13058,58.91682
1638718,451.4652,331.595,66.10656,58.90391
1638752,451.2807,330.9998,66.09789,58.85837
1638782,450.1382,330.5706,66.04404,58.82546
1638820,449.952,329.9099,66.03524,58.77466
1638851,449.0662,329.0424,65.99331,58.70774
1638881,448.3772,328.9302,65.96059,58.69907
1638915,446.7813,328.9111,65.8845,58.69759
1638947,445.2198,329.143,65.80961,58.71552
1638978,444.2393,329.8614,65.76235,58.77092
1639010,443.6942,329.7476,65.73601,58.76216
1639042,445.0925,330.6622,65.80348,58.83249
1639078,444.0094,334.5057,65.75125,59.12492
1639106,440.927,340.4535,65.60144,59.56782
1639138,433.5937,348.548,65.23795,60.15241
1639171,425.37,359.2267,64.81808,60.89306
1639203,416.0446,370.6865,64.32558,61.65138
1639237,404.8014,380.6165,63.70743,62.27972
1639272,392.1512,386.3754,62.97808,62.6325
1639302,380.3281,392.5632,62.26183,63.00243
1639335,368.6371,397.2903,61.51844,63.27885
1639367,357.5045,403.7767,60.77589,63.64971
1639400,347.2829,407.7063,60.06239,63.86978
1639433,338.2495,410.3154,59.40504,64.01401
1639464,330.2171,413.0107,58.7983,64.16146
1639494,322.2022,413.3522,58.17096,64.18003
1639530,315.0215,413.9858,57.58946,64.21442
1639561,307.56,416.7643,56.96487,64.36423
1639601,301.9472,420.3499,56.48081,64.55517
1639638,297.2835,420.8851,56.06897,64.58344
1639658,293.7883,421.7287,55.75444,64.62789
1639683,290.3474,423.2048,55.43977,64.70531
1639706,287.1984,424.3542,55.14731,64.76529
1639729,283.4459,425.0131,54.79313,64.79955
1639752,280.2635,426.6155,54.48781,64.88252
1639773,278.6963,427.2274,54.33575,64.91407
1639797,277.0214,428.4154,54.172,64.97511
1639821,275.6263,428.7107,54.0346,64.99023
1639861,274.867,429.6727,53.95944,65.03941
1639894,274.0063,428.8223,53.87391,64.99596
1639922,273.7258,429.7326,53.84597,65.04247
1639954,273.6093,430.034,53.83434,65.05783
1639987,274.011,429.8983,53.87439,65.05091
1640021,274.0847,430.7844,53.88172,65.096
1640053,274.0479,431.4769,53.87806,65.13113
1640084,273.8478,431.6262,53.85812,65.13869
1640124,274.1262,431.5208,53.88585,65.13336
1640159,274.2648,432.2625,53.89963,65.17088
1640187,274.0365,431.3167,53.87692,65.12301
1640223,274.0554,431.5346,53.8788,65.13406
1640250,274.1719,431.8299,53.89039,65.14901
1640282,273.9402,430.9463,53.86733,65.10423
1640316,274.0971,430.0931,53.88295,65.06084
1640348,274.5692,430.6397,53.92989,65.08865
1640380,274.9108,430.0634,53.96379,65.05933
1640411,274.7654,429.9493,53.94936,65.05351
1640448,274.534,428.9302,53.92639,65.00147
1640477,274.4069,429.4625,53.91376,65.02868
1640510,274.2926,428.941,53.9024,65.00203
1640539,274.4662,428.4069,53.91966,64.97467
1640581,274.4878,429.0938,53.92181,65.00984
1640607,274.5688,427.7343,53.92985,64.94015
1640637,274.3541,427.4196,53.90852,64.92397
1640671,273.6667,427.6237,53.84007,64.93446
1640704,272.8784,426.3559,53.7613,64.86912
1640734,271.0113,425.9257,53.57354,64.84687
1640774,268.2443,425.6134,53.29219,64.8307
1640809,262.2901,424.0795,52.67395,64.75098
1640842,256.2078,422.9623,52.02382,64.69263
1640861,250.018,422.0672,51.34221,64.64568
1640884,243.2569,419.4669,50.57377,64.5084
1640915,234.52,414.6161,49.54227,64.24855
1640948,223.9969,414.7654,48.2393,64.25662
1640980,214.8172,415.5602,47.04573,64.29951
1641016,206.8281,414.0681,45.96155,64.21888
1641048,198.8102,413.0284,44.82907,64.16243
1641080,193.0857,410.243,43.99229,64.01003
1641113,187.7075,408.3622,43.18401,63.90618
1641142,183.3326,406.7939,42.51034,63.81899
1641181,180.6197,404.543,42.08514,63.6929
1641210,178.3483,402.8327,41.72471,63.59634
1641241,176.7269,400.5703,41.46492,63.46759
1641273,175.6161,399.4324,41.28574,63.40239
1641305,174.8901,396.8238,41.16809,63.2518
1641343,173.9363,395.1983,41.01289,63.15717
1641374,173.3758,391.5453,40.92133,62.94221
1641407,173.6291,387.3675,40.96273,62.69244
1641438,173.9132,382.3849,41.00912,62.38894
1641474,174.3877,376.1929,41.08643,62.003
1641502,175.4318,371.6066,41.25591,61.7107
1641522,175.8174,365.214,41.31828,61.29382
1641550,175.7511,357.0291,41.30757,60.74339
1641583,176.462,347.5544,41.42229,60.08175
1641613,176.4015,340.5406,41.41253,59.57422
1641649,176.9526,333.5123,41.50122,59.04981
1641680,177.1526,328.3243,41.53334,58.65216
1641713,177.8401,323.4795,41.64351,58.27245
1641747,179.0254,319.6067,41.83258,57.96294
1641781,180.8986,316.5202,42.12912,57.71239
1641814,182.8188,314.5906,42.43025,57.55397
1641843,185.041,312.929,42.77516,57.41643
1641882,186.9638,311.263,43.07052,57.27749
1641916,188.6472,309.6736,43.3268,57.14396
1641948,190.5524,308.9378,43.61427,57.08181
1641979,192.1785,308.5142,43.85745,57.04593
1642012,193.2156,308.0856,44.01154,57.00956
1642041,193.6612,307.7237,44.0775,56.9788
1642075,194.1073,307.5497,44.14337,56.96399
1642108,193.6927,307.304,44.08215,56.94307
1642137,193.271,307.1805,44.01975,56.93253
1642170,193.1808,307.0123,44.00639,56.91818
1642203,193.2379,306.2018,44.01484,56.84887
1642238,193.4686,306.1279,44.04901,56.84254
1642268,193.4813,306.1306,44.05088,56.84277
1642300,193.4622,305.8463,44.04805,56.81839
1642332,193.5064,305.8384,44.0546,56.81771
1642367,194.0578,305.5117,44.13607,56.78966
1642400,194.4987,305.181,44.20106,56.76122
1642433,195.6169,304.5388,44.36523,56.70587
1642464,197.0201,303.7241,44.56997,56.6354
1642496,198.4256,303.1219,44.77359,56.58315
1642528,198.4577,302.3072,44.77822,56.51223
1642577,198.3253,301.8426,44.75911,56.47166
1642598,198.017,300.7071,44.71455,56.37216
1642628,198.7375,298.9276,44.81859,56.21516
1642661,201.7504,296.2539,45.24963,55.97685
1642695,208.9701,292.4407,46.25649,55.6318
1642725,223.6463,288.4566,48.19472,55.26468
1642757,240.4522,286.019,50.24746,55.03666
1642792,261.2845,285.7478,52.56778,55.01114
1642835,282.7927,285.9876,54.73083,55.03371
1642860,304.6688,286.7998,56.71708,55.10999
1642890,327.5186,287.4384,58.58958,55.16975
1642920,348.39,289.7126,60.14119,55.38115
1642955,363.4267,289.8997,61.17525,55.39845
1642987,374.1768,289.8901,61.8752,55.39756
1643030,382.247,290.2681,62.38045,55.43245
1643054,390.0162,289.7459,62.85128,55.38423
1643091,393.7637,289.1956,63.07312,55.3333
1643117,396.0848,289.3623,63.20885,55.34874
1643150,397.7903,289.9849,63.30778,55.40631
1643184,398.2604,290.4814,63.33493,55.45212
1643221,398.4671,290.5699,63.34685,55.46027
1643251,398.8748,291.0748,63.37033,55.50671
1643289,398.042,291.724,63.32232,55.56626
1643317,397.6005,292.5997,63.2968,55.64631
1643346,396.9707,293.1559,63.26032,55.69699
1643380,396.998,293.1048,63.26191,55.69234
