Time Stamp(ms),Intersection,,Angle,
,x,y,x,y
251908.4,310.508,246.4285,57.21418,50.9374
251926.7,310.429,246.5207,57.20755,50.94789
251943.2,310.4897,246.486,57.21264,50.94395
251960.1,310.6569,246.2765,57.22668,50.92011
251976,310.8076,246.1649,57.23933,50.9074
251992,310.9641,246.0259,57.25245,50.89157
252010.6,311.146,245.9047,57.26769,50.87774
252027.9,311.3058,245.7906,57.28107,50.86473
252045.2,311.3836,245.7068,57.28759,50.85515
252059.3,311.4607,245.6454,57.29404,50.84815
252075,311.4846,245.607,57.29604,50.84377
252093.3,311.5382,245.4077,57.30052,50.82098
252108.2,311.6373,245.1322,57.3088,50.78947
252125.7,311.6813,245.0361,57.31248,50.77847
252141.6,311.6081,245.0046,57.30636,50.77486
252157.9,311.5485,245.0419,57.30138,50.77913
252174.6,311.4669,245.0168,57.29456,50.77626
252192.4,311.255,244.9521,57.27682,50.76883
252208,311.1184,244.7996,57.26538,50.75136
252225.9,311.0186,244.6036,57.25702,50.72887
252241.2,310.9636,244.2536,57.25241,50.68866
252259.2,310.9317,243.957,57.24974,50.65453
252275.2,310.915,243.5895,57.24834,50.61217
252292.6,311.0028,243.1696,57.2557,50.56368
252309.2,311.0805,242.8738,57.26221,50.52946
252326.3,311.2294,242.6263,57.27468,50.5008
252342.5,311.4105,242.4978,57.28984,50.4859
252359.1,311.5639,242.4348,57.30267,50.4786
252374.4,311.7465,242.369,57.31792,50.47095
252392,311.9607,242.2605,57.33581,50.45836
252410.7,312.1396,242.395,57.35073,50.47397
252426.6,312.2785,242.502,57.36231,50.48639
252443.5,312.3028,242.7294,57.36433,50.51274
252456.9,312.0842,243.2186,57.34612,50.56935
252474.2,311.7979,243.6934,57.32222,50.62415
252492.5,311.2808,244.2274,57.27898,50.68565
252508.3,310.776,244.7388,57.23668,50.74438
252527.2,310.2348,245.1283,57.19122,50.78902
252542,309.6502,245.4064,57.14198,50.82084
252559.7,309.1369,245.5899,57.09864,50.84181
252576.5,308.6234,245.6919,57.05519,50.85345
252592.8,308.1258,245.7021,57.01298,50.85463
252608.8,307.6581,245.736,56.97322,50.8585
252627,307.2394,245.6621,56.93756,50.85006
252643,306.8137,245.5202,56.90122,50.83385
252658.9,306.4254,245.4347,56.86802,50.82408
252674.6,305.9605,245.3383,56.82819,50.81306
252692.2,305.5131,245.2115,56.78978,50.79854
252708.9,305.1206,245.0801,56.75602,50.7835
252725.9,304.7235,244.9153,56.7218,50.76463
252743.7,304.4484,244.7706,56.69806,50.74804
252759.9,304.2015,244.6944,56.67672,50.7393
252776.4,304.0183,244.6089,56.66088,50.72948
252794.8,303.7991,244.5122,56.6419,50.71838
252810.7,303.7075,244.5401,56.63396,50.72158
252827.1,303.5814,244.6621,56.62303,50.73558
252844.5,303.4892,244.6618,56.61504,50.73555
252860.4,303.3815,244.7275,56.60569,50.74309
252877,303.3498,244.7074,56.60294,50.74078
252895,303.3144,244.5869,56.59986,50.72695
252910.2,303.3053,244.5617,56.59908,50.72406
252927.7,303.2665,244.5173,56.59571,50.71896
252943.5,303.2659,244.3919,56.59565,50.70456
252960,303.2484,244.2891,56.59413,50.69274
252975.7,303.1921,244.2352,56.58925,50.68655
252994.8,303.1458,244.2094,56.58522,50.68358
253011.6,303.0663,244.2176,56.57832,50.68452
253028.2,303.0143,244.1848,56.5738,50.68075
253044.6,303.0688,243.97,56.57854,50.65603
253061.8,303.0771,243.836,56.57925,50.64059
253078.7,303.1431,243.6466,56.58499,50.61877
253097,303.2458,243.531,56.59391,50.60542
253112.3,303.3595,243.4619,56.60378,50.59746
253127.7,303.5617,243.2439,56.62133,50.57227
253145.2,303.7927,242.993,56.64135,50.54327
253161.8,304.0948,242.7772,56.66749,50.51828
253177.9,304.403,242.5118,56.69414,50.48752
253194.3,304.7454,242.3399,56.72369,50.46758
253211.6,305.1703,242.1129,56.7603,50.44122
253227.2,305.5203,241.9427,56.7904,50.42144
253244.5,305.9269,241.8414,56.82531,50.40965
253263.5,306.2944,241.7258,56.85681,50.3962
253280.2,306.5954,241.7053,56.88256,50.39381
253295,306.9427,241.7063,56.91224,50.39392
253311.4,307.2814,241.7132,56.94114,50.39473
253329,307.635,241.8029,56.97125,50.40518
253344.7,307.9771,241.8383,57.00035,50.40929
253361.6,308.371,241.8277,57.03379,50.40806
253377.7,308.7928,241.7625,57.06953,50.40047
253395.2,309.3079,241.7174,57.11309,50.39522
253411.6,309.7642,241.6308,57.1516,50.38513
253427.7,310.3393,241.6215,57.2,50.38405
253445.7,310.8155,241.6387,57.23999,50.38605
253460.9,311.3849,241.6643,57.28769,50.38903
253478,311.9739,241.7145,57.33691,50.39488
253493.6,312.565,241.7866,57.38617,50.40328
253511.5,313.1652,241.8515,57.43605,50.41082
253528.8,313.7344,241.9998,57.48323,50.42808
253546.4,314.2349,242.0172,57.52461,50.4301
253561.9,314.7342,242.0099,57.5658,50.42924
253577.9,315.1977,242.0101,57.60396,50.42927
253593.4,315.7124,242.1362,57.64624,50.44392
253612.2,316.1241,242.325,57.67998,50.46585
253628.7,316.4872,242.5395,57.70969,50.49073
253645,316.8393,242.7728,57.73845,50.51778
253660.9,317.1776,243.0984,57.76605,50.55545
253677.4,317.5312,243.385,57.79484,50.58857
253694,317.961,243.5976,57.82978,50.61311
253712.8,318.3489,243.836,57.86126,50.64059
253728.1,318.8278,243.875,57.90004,50.64508
253745.2,319.3535,244.0056,57.94252,50.66012
253763.7,319.9063,244.0391,57.98708,50.66398
253779,320.5627,244.0201,58.03984,50.6618
253795.3,321.1859,244.0497,58.08979,50.6652
253813.3,321.8754,244.0056,58.1449,50.66013
253829.9,322.4341,243.9232,58.18943,50.65064
253847,323.0521,243.8472,58.23855,50.64188
253863.2,323.7656,243.8207,58.2951,50.63883
253879.8,324.3338,243.7677,58.34,50.63273
253896.2,324.9466,243.7615,58.38829,50.63201
253913.1,325.5977,243.7389,58.43947,50.6294
253930,326.1771,243.9879,58.48488,50.65809
253946.6,326.6817,244.2257,58.52433,50.68545
253962.6,327.316,244.2636,58.57381,50.6898
253979.1,327.893,244.3331,58.61869,50.6978
253994.5,328.4697,244.4038,58.66343,50.70592
254012,329.037,244.5409,58.70733,50.72167
254029.2,329.5237,244.6222,58.7449,50.731
254045.7,330.0362,244.7658,58.78438,50.74749
254062.2,330.5399,244.706,58.8231,50.74062
254078.3,331.0806,244.6297,58.86456,50.73186
254094.6,331.5933,244.459,58.90378,50.71227
254111.6,332.1839,244.1255,58.94886,50.67392
254128.2,332.8577,243.8162,59.00014,50.63832
254144.7,333.5112,243.6167,59.04972,50.61531
254160.5,334.1865,243.5426,59.10082,50.60677
254177.5,334.8337,243.5286,59.14965,50.60515
254194,335.5422,243.5989,59.20293,50.61325
254210.9,336.3581,243.6495,59.2641,50.61909
254229.9,336.9701,243.7109,59.30983,50.62617
254245.8,337.491,243.7722,59.34866,50.63324
254262.2,338.1581,243.7532,59.39826,50.63105
254278.5,338.6273,243.7409,59.43306,50.62963
254296.1,339.0705,243.8811,59.46586,50.64579
254313,339.505,243.9522,59.49796,50.65398
254329.7,339.8166,243.992,59.52094,50.65856
254345.2,340.0898,243.9891,59.54107,50.65823
254363,340.2886,244.0771,59.5557,50.66835
254378.8,340.4437,244.1367,59.5671,50.67522
254394.9,340.588,244.1961,59.57771,50.68204
254413.3,340.7438,244.2449,59.58914,50.68765
254429.3,340.8404,244.2323,59.59623,50.68621
254445.9,340.95,244.2208,59.60427,50.68488
254462.6,341.0559,244.2829,59.61204,50.69202
254484,341.1329,244.1923,59.61768,50.68161
254495.8,341.2692,244.0919,59.62767,50.67006
254512.6,341.507,243.9611,59.64508,50.655
254530.2,341.8262,243.8307,59.66841,50.63998
254546.3,342.3625,243.7303,59.70754,50.62841
254569.1,342.8722,243.8076,59.74466,50.63732
254579.1,343.4483,244.0202,59.7865,50.6618
254595.1,344.1026,244.2862,59.8339,50.69241
254613,344.7097,244.5705,59.87776,50.72507
254634.4,345.2444,244.8005,59.9163,50.75146
254650.3,345.6422,245.104,59.9449,50.78624
254667.6,345.9818,245.436,59.96929,50.82422
254683.4,346.2088,245.6805,59.98557,50.85215
254695.7,346.3783,245.8797,59.99772,50.87489
254712.5,346.5752,245.9987,60.01181,50.88846
254731,346.6996,246.1454,60.02071,50.90517
254748.7,346.7561,246.1472,60.02476,50.90538
254765.6,346.8542,246.1954,60.03177,50.91088
254784.4,346.8853,246.1318,60.03399,50.90363
254800,346.9649,246.1478,60.03968,50.90545
254816.4,347.041,246.1614,60.04512,50.907
254832,347.108,246.192,60.0499,50.91048
254849.8,347.2022,246.199,60.05663,50.91129
254869.1,347.2728,246.2773,60.06166,50.9202
254885.5,347.3859,246.4494,60.06973,50.93979
254902.1,347.4514,246.6259,60.07441,50.95985
254917.4,347.5584,246.7281,60.08203,50.97146
254931.7,347.6541,246.904,60.08885,50.99144
254948.9,347.6691,247.0792,60.08992,51.01132
254965.4,347.7342,247.1446,60.09455,51.01873
254984.6,347.8253,247.1918,60.10104,51.02408
255001.6,347.8668,247.2972,60.104,51.03602
255016.5,347.9089,247.4352,60.10699,51.05165
255032.1,347.9475,247.6398,60.10974,51.0748
255053,347.9956,247.8368,60.11316,51.09707
255066.6,348.0194,247.8675,60.11485,51.10054
255085.1,348.0292,248.0862,60.11555,51.12523
255103.4,348.027,248.2543,60.11539,51.1442
255118.5,348.0541,248.3372,60.11732,51.15354
255132.8,348.0659,248.4874,60.11816,51.17046
255149.8,348.0751,248.6304,60.11881,51.18657
255168,348.0519,248.7913,60.11717,51.20466
255182.6,348.038,248.9971,60.11618,51.22779
255200.3,348.0349,249.2439,60.11596,51.2555
255218.2,348.0167,249.4464,60.11466,51.27821
255233.4,347.9816,249.7572,60.11216,51.31303
255251.8,347.9311,249.8804,60.10857,51.32682
255268.7,347.9489,250.0345,60.10984,51.34406
255284.2,347.8919,250.2782,60.10578,51.37127
255300.5,347.8434,250.5276,60.10233,51.3991
255317.5,347.7934,250.8168,60.09877,51.43133
255333.3,347.746,251.2062,60.0954,51.47465
255351.6,347.6873,251.6003,60.09121,51.5184
255367.5,347.604,251.9883,60.08528,51.56141
255385.6,347.5276,252.438,60.07984,51.61114
255401.2,347.4425,252.9487,60.07377,51.66749
255418,347.3355,253.341,60.06614,51.71069
255432.6,347.2838,253.744,60.06245,51.75497
255450.4,347.2186,254.0055,60.0578,51.78365
255467.3,347.2141,254.2291,60.05748,51.80815
255482.6,347.2373,254.4693,60.05914,51.83444
255498.8,347.2937,254.7283,60.06316,51.86276
255515.3,347.4249,254.955,60.07251,51.88751
255535.4,347.5198,255.2083,60.07928,51.91514
255551.6,347.6007,255.4517,60.08504,51.94165
255567.6,347.6886,255.7617,60.09131,51.97538
255585,347.7202,256.1175,60.09356,52.01402
255599.2,347.7049,256.499,60.09247,52.05538
255617.4,347.5986,257.0512,60.0849,52.11512
255633.5,347.4814,257.6212,60.07654,52.17661
255649.2,347.3005,258.2328,60.06364,52.2424
255667.2,347.0077,258.9633,60.04274,52.32073
255683.7,346.6958,259.742,60.02044,52.40392
255698.7,346.3204,260.6309,59.99357,52.49849
255716.9,345.7834,261.8735,59.95506,52.63003
255734,345.1845,263.1591,59.91199,52.76529
255750.8,344.2801,264.8989,59.84674,52.94701
255767.2,343.4228,266.5374,59.78465,53.11676
255782.3,342.1079,268.2433,59.68898,53.29209
255799.8,341.0463,269.2309,59.61133,53.39294
255815.6,340.0155,270.2242,59.5356,53.49389
255832.5,338.7514,271.3314,59.44225,53.60585
255849.5,337.5149,272.4275,59.35044,53.7161
255866.3,336.3987,273.2959,59.26713,53.80305
255882.3,335.3011,274.0411,59.18482,53.87738
255898.3,334.2424,274.7465,59.10505,53.94748
255916,333.2369,275.496,59.02893,54.02173
255933.1,332.2657,276.0983,58.95509,54.0812
255951.5,331.4473,276.636,58.89262,54.13414
255972.7,330.8582,277.1242,58.84752,54.18209
255988.5,330.2797,277.6229,58.80311,54.23096
256004.5,329.7158,278.0907,58.75971,54.2767
256019.9,329.2352,278.5551,58.72264,54.322
256035.5,328.7773,279.0064,58.68724,54.36593
256049.6,328.171,279.6568,58.64026,54.42908
256074.2,327.7614,280.1456,58.60846,54.47641
256086.1,327.325,280.6935,58.5745,54.52933
256099.9,326.9809,281.245,58.54768,54.58246
256116.4,326.5886,281.7527,58.51706,54.63126
256133.9,326.2292,282.288,58.48896,54.68257
256149.9,325.7518,283.0148,58.45156,54.75204
256171.5,325.4599,283.4318,58.42865,54.79179
256188.5,325.0098,284.0619,58.39327,54.8517
256206.2,324.6163,284.6087,58.36228,54.90355
256217.6,324.1782,285.106,58.32771,54.95059
256235.2,324.1521,285.0272,58.32565,54.94315
256249.9,323.8409,285.3549,58.30105,54.97409
256266.2,323.5183,285.8177,58.27552,55.01772
256288.5,323.2179,286.3205,58.25171,55.06501
256305.1,322.9383,286.8599,58.22952,55.11562
256316,322.6871,287.5793,58.20956,55.18291
256332.8,322.4697,288.5443,58.19226,55.27283
256350,322.2908,289.5221,58.17801,55.36353
256368.2,322.2654,290.37,58.17599,55.44184
256385.2,322.4115,291.1606,58.18763,55.51458
256399.5,322.5825,292.2393,58.20123,55.6134
256418.6,322.9052,293.1493,58.22688,55.69638
256435.5,323.3978,293.6707,58.26597,55.74377
256456.6,323.9243,294.1255,58.30764,55.78502
256473.9,324.4614,294.545,58.35006,55.82298
256488.2,325.0063,294.8519,58.393,55.8507
256504.4,325.4697,295.2128,58.42942,55.88325
256521.6,325.8932,295.4482,58.46264,55.90445
256543.9,326.3252,295.5865,58.49647,55.9169
256556,326.6568,295.6729,58.52239,55.92467
256569.6,326.9604,295.7976,58.54609,55.93588
256587.8,327.2369,296.0228,58.56764,55.95611
256605.2,327.5682,296.5026,58.59344,55.99914
256627.7,327.6948,296.7394,58.60328,56.02035
256639,327.8398,297.1692,58.61455,56.05877
256654,328.0096,297.8505,58.62774,56.11952
256674,328.1172,298.6115,58.6361,56.18714
256687.9,328.2581,299.6931,58.64703,56.28286
256705.4,328.433,300.9753,58.66059,56.39571
256720.2,328.6894,302.4131,58.68044,56.52147
256737.7,329.2019,303.3509,58.72007,56.60303
256754,329.934,303.9413,58.77652,56.65421
256770.6,330.487,304.6256,58.81903,56.71336
256787.5,330.942,305.4075,58.85394,56.7807
256803.6,331.3568,306.3299,58.8857,56.85985
256820.5,331.6675,307.0466,58.90946,56.92111
256838,331.9268,307.3399,58.92925,56.94613
256853.6,332.197,307.538,58.94986,56.963
256870.7,332.4427,307.8265,58.96857,56.98755
256888.4,332.5865,308.2227,58.97952,57.0212
256905.9,332.7213,308.5146,58.98977,57.04596
256923,332.7852,308.6432,58.99463,57.05686
256938,332.9023,308.6582,59.00353,57.05814
256953.4,332.9704,308.4012,59.0087,57.03636
256971.6,332.9532,308.079,59.0074,57.00901
256987.1,333.0732,307.8271,59.01651,56.9876
257003.9,333.1938,307.6521,59.02566,56.97271
257023.5,333.39,307.5492,59.04053,56.96395
257041.3,333.6255,307.5042,59.05839,56.96012
257054.4,333.881,307.5173,59.07773,56.96124
257071.5,334.2302,307.5873,59.10412,56.9672
257087.1,334.5636,307.6598,59.12928,56.97336
257104.2,334.881,307.7158,59.15321,56.97813
257121.2,335.1437,307.9668,59.17298,56.99947
257137.8,335.4922,308.1143,59.19918,57.012
257153.2,335.8379,308.2232,59.22513,57.02125
257171.3,336.0489,308.3484,59.24095,57.03187
257187.8,336.3427,308.4631,59.26294,57.04161
257203.5,336.6452,308.5305,59.28556,57.04732
257220.1,336.5136,308.5886,59.27573,57.05224
257235.8,336.6364,308.5051,59.28491,57.04516
257252.3,336.7852,308.4757,59.29602,57.04267
257273.3,336.8873,308.3912,59.30365,57.03551
257286,336.9449,308.3139,59.30795,57.02895
257303.5,337.0407,308.1787,59.3151,57.01748
257321.6,337.0774,307.9493,59.31784,56.99799
257339.2,337.1296,307.7117,59.32173,56.97778
257353.4,337.1411,307.5393,59.32259,56.96311
257374.3,337.1829,307.3374,59.3257,56.94591
257390.8,337.2483,307.1364,59.33058,56.92877
257406.6,337.3359,307.0452,59.33711,56.92099
257422.7,337.371,306.9533,59.33973,56.91315
257437.9,337.4294,306.9377,59.34407,56.91181
257454.3,337.5458,306.9583,59.35274,56.91357
257472.3,337.6357,306.9142,59.35943,56.9098
257488.3,337.6886,306.7798,59.36337,56.89833
257505.1,337.7689,306.8049,59.36934,56.90047
257522.8,337.8778,306.8653,59.37744,56.90563
257537.3,337.9665,306.8554,59.38403,56.90479
257553.2,338.1537,306.835,59.39793,56.90305
257569.8,338.3488,306.8628,59.41241,56.90542
257586.3,338.497,306.8624,59.4234,56.90538
257602.7,338.6486,306.9323,59.43464,56.91136
257618.5,338.7993,306.9636,59.4458,56.91402
257635.3,338.925,306.958,59.4551,56.91355
257652.7,338.9777,306.9616,59.459,56.91386
257673,339.0756,306.946,59.46624,56.91252
257688.8,339.119,306.9352,59.46945,56.9116
257705.7,339.1038,306.9539,59.46833,56.91319
257722.9,339.1131,306.8717,59.46901,56.90618
257735.8,339.1145,306.7953,59.46912,56.89965
257752.8,339.0684,306.824,59.46571,56.9021
257770.8,339.0378,306.7819,59.46344,56.8985
257786.2,339.0385,306.7075,59.4635,56.89215
257803.7,339.0569,306.6923,59.46486,56.89085
257819.2,339.0894,306.7962,59.46726,56.89973
257835.4,339.1852,306.7843,59.47434,56.89871
257854.4,339.2618,306.7184,59.48,56.89309
257871,339.4106,306.6993,59.49099,56.89145
257887.1,339.5874,306.6782,59.50404,56.88964
257902.9,339.7945,306.6443,59.51932,56.88675
257919.8,340.0275,306.5812,59.53648,56.88136
257936.3,340.2843,306.4523,59.55538,56.87032
257953.2,340.6329,306.4066,59.581,56.86642
257973.2,340.9276,306.325,59.60263,56.85943
257986.8,341.2882,306.2741,59.62906,56.85507
258003,341.7029,306.2438,59.6594,56.85247
258020.3,342.1843,306.1707,59.69455,56.84621
258036.3,342.6712,306.1728,59.73003,56.84639
258053.4,343.2954,306.2155,59.77541,56.85005
258070.6,344.0214,306.3607,59.82803,56.86248
258093.6,344.6191,306.551,59.87123,56.87877
258110.5,345.193,306.6201,59.9126,56.88468
258124.1,345.8177,306.7929,59.95751,56.89944
258141,346.3398,306.9223,59.99496,56.9105
258157.4,346.7413,307.0052,60.0237,56.91758
258172.5,347.2267,307.0957,60.05838,56.9253
258192.7,347.6141,307.2517,60.086,56.93861
258208.6,347.8557,307.2813,60.10321,56.94113
258225.6,348.0967,307.364,60.12035,56.94818
258242.5,348.2923,307.3843,60.13425,56.94991
258257.6,348.4603,307.4327,60.14618,56.95403
258275.4,348.6255,307.515,60.1579,56.96104
258292.9,348.7026,307.5957,60.16338,56.96791
258308.8,348.7914,307.5897,60.16967,56.9674
258325.8,348.8531,307.5032,60.17404,56.96004
258342.3,348.9081,307.4231,60.17794,56.95321
258357.8,348.9213,307.4512,60.17887,56.95561
258372.6,348.9474,307.4702,60.18072,56.95723
258390.4,348.9857,307.6399,60.18344,56.97168
258407.6,348.9981,307.7465,60.18431,56.98074
258424.6,349.0695,307.8265,60.18937,56.98755
258440.5,349.0927,307.9406,60.19101,56.99725
258456.7,349.1427,307.9539,60.19455,56.99838
258474.5,349.2881,307.9759,60.20484,57.00025
258490.5,349.4308,307.9344,60.21493,56.99672
258505.7,349.6023,307.7596,60.22705,56.98186
258522.8,349.7946,307.6399,60.24063,56.97167
258542.8,350.0012,307.529,60.2552,56.96223
258556.8,350.2943,307.4471,60.27586,56.95526
258572.8,350.7656,307.2122,60.30902,56.93523
258592.6,351.5223,306.9128,60.36212,56.90969
258606.2,352.6348,306.4256,60.43987,56.86803
258623.8,354.416,305.6991,60.56359,56.80576
258642.1,356.5123,304.8738,60.70799,56.73476
258658.5,359.0977,303.9163,60.88431,56.65205
258673.5,362.8207,302.6334,61.13485,56.54066
258690.7,366.3613,301.4464,61.36947,56.437
258707.8,370.7253,300.334,61.6539,56.33935
258724.3,374.6686,299.4537,61.90648,56.26171
258740.9,379.0159,298.7898,62.18018,56.20296
258759.5,382.8597,298.2048,62.41813,56.15104
258774.4,386.4604,297.5844,62.63765,56.09581
258791.6,389.8065,296.8591,62.83878,56.03105
258809.3,392.8672,296.1885,63.02036,55.97099
258826.8,395.4264,295.5045,63.17048,55.90952
258842.9,397.3529,294.9387,63.28247,55.85852
258858.3,399.1319,294.2864,63.38512,55.79958
258874,400.9502,293.4998,63.48929,55.72825
258891.5,402.0992,292.8046,63.55472,55.665
258908.1,403.2621,292.1331,63.62064,55.6037
258924.4,404.199,291.3364,63.67353,55.53072
258940.9,405.1453,290.6258,63.72675,55.46542
258957.1,405.9364,289.8901,63.77108,55.39756
258974.7,406.6093,289.075,63.80869,55.32212
258992.4,407.2442,288.2643,63.84408,55.24679
259008,407.744,287.5782,63.87187,55.18282
259024.9,408.3657,286.6889,63.90637,55.09959
259045.8,408.7776,286.0685,63.92918,55.04132
259057.9,409.326,285.3772,63.95949,54.9762
259074.2,409.9283,284.5563,63.99271,54.89859
259091.1,410.5765,283.7983,64.02837,54.82666
259108.9,411.2134,283.0176,64.06332,54.75231
259126.6,411.9325,282.0435,64.10266,54.65915
259141.7,413.0347,280.7569,64.16277,54.53545
259157.9,414.244,279.4542,64.22842,54.40943
259175.6,415.6242,278.1376,64.30296,54.28128
259189.2,417.2596,276.7981,64.39076,54.15007
259207.5,418.7807,275.4669,64.47194,54.01884
259224.2,420.4625,274.038,64.56112,53.87706
259243.8,421.814,273.0167,64.63238,53.77514
259256.7,423.0603,272.0281,64.69775,53.676
259273.6,424.4083,270.8935,64.76811,53.56164
259292.1,425.6094,269.8067,64.83049,53.45151
259307.8,426.7537,268.7143,64.88966,53.34025
259325.7,427.7787,267.6719,64.94243,53.23352
259342.6,428.904,266.6413,65.00013,53.12749
259358.4,429.8274,265.8405,65.04729,53.04473
259375.2,430.6805,265.0287,65.09072,52.9605
259391.3,431.5716,264.1291,65.13593,52.8668
259407.3,432.239,263.0952,65.16969,52.75859
