Time Stamp(ms),Intersection,,Angle,
,x,y,x,y
993822.5,315.9229,234.0553,57.66349,49.48615
993849.4,317.096,232.6284,57.75939,49.31302
993881.3,318.757,230.4364,57.89431,49.04468
993920.8,320.4424,228.8716,58.03018,48.85134
993951.3,321.4803,228.8595,58.11334,48.84984
993983.9,320.7329,230.3221,58.0535,49.03061
994017,317.8063,233.0607,57.81721,49.3656
994055.6,314.9897,234.4739,57.58685,49.5367
994088.9,312.2402,233.9845,57.35912,49.47759
994124.9,310.2122,232.8485,57.18932,49.33981
994157.3,309.1606,231.4708,57.10065,49.17168
994195.3,308.9595,230.3491,57.08364,49.03394
994224.6,308.9039,229.7219,57.07894,48.95658
994258.5,308.899,229.523,57.07853,48.932
994291.2,308.7414,229.4812,57.06519,48.92683
994327.4,308.6529,229.7012,57.05769,48.95403
994368.9,308.7153,230.1495,57.06297,49.00935
994395.4,308.7402,230.7009,57.06508,49.07722
994429.9,308.2973,231.1054,57.02754,49.12689
994469.9,307.4201,230.9482,56.95295,49.1076
994503.6,306.3876,230.4841,56.86478,49.05055
994534.4,305.1082,229.9614,56.75496,48.98615
994592.6,303.0291,229.6069,56.57508,48.94238
994614.1,301.749,229.4876,56.46349,48.92763
994636.4,300.1899,229.1351,56.32667,48.884
994672.3,298.4649,228.7438,56.17414,48.83548
994702.3,296.9068,228.398,56.03532,48.79252
994737.7,295.5475,228.1347,55.91338,48.75977
994774.4,294.4466,228.0715,55.81408,48.7519
994808.8,293.4006,227.979,55.71924,48.74037
994843.8,292.858,227.9683,55.66986,48.73904
994874.3,292.4983,227.8821,55.63705,48.7283
994907,292.3676,227.7027,55.62513,48.70592
994943.8,292.38,227.526,55.62626,48.68388
994975.8,292.3339,227.3509,55.62205,48.662
995011,292.141,227.2367,55.60442,48.64771
995043.1,291.787,227.4461,55.57203,48.67389
995076.7,291.2322,227.7208,55.52117,48.70818
995110.8,290.584,227.8098,55.46156,48.71928
995145.1,289.5752,227.8519,55.36845,48.72453
995179.1,288.3191,227.7674,55.25189,48.71399
995215.9,286.8451,227.6441,55.11423,48.69862
995247.1,285.1714,227.5179,54.95677,48.68285
995282.9,283.6223,227.1962,54.80992,48.64266
995316,281.9925,226.8504,54.65426,48.59937
995349.9,280.3384,226.4262,54.49505,48.54616
995393.8,278.5855,226.1725,54.32496,48.51428
995420.3,276.8616,225.9335,54.15631,48.48423
995454.4,275.9211,225.8213,54.06371,48.4701
995487.2,274.2072,225.5465,53.8939,48.43547
995523.3,272.5624,225.1637,53.72964,48.38715
995554.4,270.9083,224.7682,53.56313,48.33713
995592.3,269.1211,224.4823,53.38175,48.30092
995628.8,267.3636,223.9507,53.20185,48.23344
995658.9,265.656,223.478,53.02562,48.17327
995691.8,264.0297,222.9471,52.85642,48.10556
995727.8,262.3886,222.6937,52.68433,48.07316
995757.4,260.865,222.5646,52.52333,48.05665
995789.8,259.524,222.4347,52.38066,48.04001
995828.2,258.3008,222.3266,52.2497,48.02617
995863.1,257.2676,222.1834,52.13848,48.00781
995897.3,256.4702,222.036,52.05226,47.98891
995930.8,255.8836,221.6548,51.98863,47.93994
995966.5,255.5732,221.5009,51.95488,47.92014
995997,255.4244,221.3402,51.93868,47.89946
996034.6,255.4318,221.1948,51.93949,47.88073
996067.8,255.5657,221.2119,51.95406,47.88293
996104.8,255.82,221.2459,51.98171,47.88731
996134.1,256.2083,221.3703,52.02388,47.90334
996168.1,256.5974,221.4871,52.06604,47.91837
996208.1,256.9488,221.644,52.10405,47.93855
996243.1,257.2739,221.6962,52.13916,47.94527
996270.2,257.3324,221.6175,52.14548,47.93515
996303.8,257.5105,221.613,52.16468,47.93456
996339.1,257.6906,221.5288,52.18408,47.92373
996370.9,257.8877,221.4039,52.2053,47.90767
996408.2,258.1325,221.5357,52.23162,47.92463
996442.5,258.5109,221.7632,52.27225,47.95387
996475.4,259.0808,221.9576,52.3333,47.97884
996506.9,260.2166,222.0136,52.45446,47.98602
996543.3,261.637,222.0744,52.60505,47.99383
996575.4,264.181,222.1967,52.87221,48.00951
996609.1,267.8986,222.2614,53.25678,48.01781
996643.2,272.9791,222.3848,53.77138,48.03362
996677.8,279.3366,222.5826,54.39802,48.05895
996711.5,286.6169,223.019,55.09284,48.11473
996748.7,294.0714,223.8077,55.78011,48.21525
996778.8,302.1812,224.6863,56.50124,48.32676
996814.1,309.879,225.6468,57.16127,48.44811
996847.3,317.0123,226.4095,57.75257,48.54407
996884.1,323.4818,227.1093,58.27263,48.63178
996918.9,328.7102,227.9955,58.68205,48.74242
996949.3,332.9859,229.3756,59.00988,48.91378
996988.4,336.2926,231.3436,59.25919,49.15609
997025.1,339.1684,233.728,59.4731,49.44655
997053.3,341.8134,236.421,59.66747,49.7705
997085,344.7613,239.9422,59.88148,50.18764
997124.3,348.0403,243.9092,60.11634,50.64902
997157.3,351.1478,247.2662,60.33586,51.03252
997192.9,354.3569,249.6962,60.5595,51.30621
997230.6,357.4792,251.4515,60.77416,51.5019
997258.6,360.3293,253.4178,60.96763,51.71912
997294.6,362.5074,255.3327,61.11391,51.9287
997329.3,364.479,257.3545,61.24517,52.14786
997363.1,365.9043,259.3684,61.33938,52.36404
997394.8,366.9459,261.2595,61.40787,52.56513
997434.4,367.6418,263.0721,61.45346,52.75617
997465,368.0682,264.5152,61.48133,52.90707
997498.3,368.4242,265.7139,61.50457,53.03162
997538.6,368.6489,266.3424,61.51921,53.09663
997568.3,368.9308,266.951,61.53756,53.15941
997599.1,369.2826,267.2905,61.56044,53.19434
997638.1,369.6613,267.5965,61.58502,53.22578
997671.6,370.1134,268.0952,61.61433,53.27693
997704.3,370.5623,268.6815,61.64336,53.33689
997739.8,370.4124,268.4694,61.63367,53.31522
997766.8,370.2117,268.3863,61.62069,53.30672
997805.9,369.9028,268.1639,61.60068,53.28397
997841,369.6197,267.8339,61.58233,53.25015
997872.5,369.392,267.7993,61.56755,53.24659
997904.9,369.2429,267.8924,61.55786,53.25615
997939.8,369.1575,268.0518,61.55231,53.27248
997974.3,369.1313,268.0796,61.5506,53.27533
998009.1,369.035,268.1974,61.54434,53.28739
998044.2,368.9258,268.3719,61.53724,53.30524
998075.6,368.6851,268.2214,61.52157,53.28985
998109.1,368.5203,268.1082,61.51083,53.27826
998146.9,368.2483,267.9561,61.49309,53.26268
998184.7,368.1617,267.904,61.48744,53.25733
998215.9,368.159,267.8281,61.48726,53.24955
998246.1,368.212,267.7212,61.49072,53.23858
998283.3,368.3312,267.6965,61.4985,53.23605
998317.5,368.4567,267.6608,61.50668,53.23238
998354.1,368.5134,267.6425,61.51038,53.23051
998384.5,368.5323,267.583,61.51162,53.2244
998421.9,368.49,267.577,61.50886,53.22379
998451.8,368.3861,267.5439,61.50208,53.22039
998488.4,368.3506,267.5076,61.49976,53.21666
998519.6,368.3892,267.5146,61.50229,53.21738
998554.1,368.5026,267.5302,61.50968,53.21898
998588.3,368.5773,267.6074,61.51455,53.2269
998621.5,368.5733,267.6489,61.51429,53.23116
998655.3,368.6452,267.5838,61.51897,53.22448
998689.7,368.6838,267.8824,61.52148,53.25512
998725.1,368.6068,267.9238,61.51647,53.25936
998757.8,368.5022,268.0838,61.50965,53.27576
998792.4,368.2594,268.2089,61.49382,53.28857
998832.1,368.027,268.1288,61.47865,53.28036
998860.9,367.7326,268.2268,61.4594,53.2904
998898.8,367.4357,268.2268,61.43998,53.2904
998932.8,367.3251,268.216,61.43273,53.2893
998967.6,367.134,268.4211,61.42021,53.31029
998999.3,366.87,268.5957,61.40289,53.32813
999032.3,366.4544,268.8927,61.37559,53.35846
999065.8,365.5919,269.2842,61.31878,53.39837
999102.4,364.0386,269.8752,61.21594,53.45848
999137.8,361.663,270.726,61.05736,53.54471
999171.9,357.5003,271.6597,60.7756,53.63893
999205.9,353.0059,272.56,60.46572,53.7294
999238.8,346.6873,273.7403,60.01984,53.84741
999274.1,341.0484,274.6555,59.61148,53.93845
999308.2,333.3178,275.4832,59.03506,54.02046
999347.8,327.7547,275.9758,58.60794,54.06911
999372.8,321.4644,277.0886,58.11207,54.1786
999406.4,315.6313,278.2259,57.63958,54.28989
999440.4,309.9346,279.5533,57.16595,54.41904
999476.6,305.3011,280.8333,56.77155,54.54282
999510.9,299.8389,282.364,56.29573,54.68985
999545.9,294.9367,283.873,55.85835,54.83375
999578.6,289.8395,285.8522,55.39289,55.02097
999613.1,284.4817,287.877,54.89151,55.2107
999648,278.8111,289.9041,54.34693,55.39886
999682.9,273.4419,291.7704,53.81763,55.57051
999713.2,268.4126,293.4189,53.30941,55.7209
999746.8,262.7701,294.4764,52.72445,55.81677
999786.8,257.8224,295.4873,52.19827,55.90797
999816.5,252.9165,296.7003,51.66394,56.01684
999853.2,248.104,297.5644,51.12724,56.09403
999885.1,243.7639,298.5616,50.63229,56.18272
999923.3,239.0722,299.454,50.08525,56.26175
999957,235.1477,300.3908,49.61786,56.34435
999991.6,230.7769,301.2169,49.08656,56.4169
1000023,226.4628,301.6189,48.55076,56.4521
1000057,222.9317,301.9088,48.10359,56.47745
1000088,219.8707,301.8783,47.70954,56.47478
1000127,217.6105,301.5335,47.41471,56.44463
1000158,216.0067,301.3224,47.20348,56.42615
1000190,214.4037,300.8775,46.99066,56.38713
1000223,212.3288,300.0046,46.71265,56.31034
1000258,210.0762,299.0823,46.40756,56.22887
1000292,208.0294,297.8574,46.12735,56.12012
1000328,206.1251,296.4473,45.86406,55.99419
1000365,204.6024,295.0648,45.65171,55.8699
1000395,203.4091,293.0835,45.48418,55.6904
1000428,202.1521,290.6702,45.30661,55.4695
1000460,200.5094,287.6972,45.07287,55.19393
1000495,198.793,284.2648,44.82659,54.87095
1000527,195.2732,277.8316,44.31488,54.25138
1000562,188.8574,266.9163,43.35865,53.15583
1000599,183.7162,257.5406,42.56999,52.16793
1000633,178.602,247.2111,41.76517,51.02628
1000667,174.2958,237.0388,41.07147,49.84422
1000698,171.4596,227.9285,40.60641,48.73408
1000731,171.1129,218.8351,40.54913,47.57487
1000771,172.0741,211.8255,40.70772,46.64479
1000804,175.422,205.7289,41.25433,45.80896
1000835,179.9525,200.6193,41.97969,45.08857
1000871,184.5165,195.0344,42.6941,44.27983
1000900,189.7572,190.3887,43.49462,43.58968
1000936,194.1588,186.0494,44.15097,42.93041
1000968,198.1953,181.8348,44.74032,42.27629
1001004,202.2215,178.0997,45.31645,41.68502
1001034,206.4465,174.2206,45.90866,41.05921
1001068,211.9788,169.8708,46.66548,40.34304
1001102,219.0955,164.6487,47.6088,39.46269
1001142,227.0012,160.0762,48.61825,38.67312
1001170,233.7959,156.9127,49.45477,38.11644
1001202,240.7454,153.9402,50.28179,37.58552
1001239,247.7788,151.8229,51.09052,37.20266
1001270,254.8136,149.6427,51.87207,36.80434
1001309,261.6296,147.1342,52.60428,36.34083
1001338,267.9864,144.8912,53.26577,35.92167
1001373,275.1056,142.1159,53.98309,35.39681
1001408,281.0992,139.7302,54.56843,34.94011
1001440,287.2566,137.3911,55.15276,34.48734
1001476,294.1075,135.9037,55.78338,34.19684
1001509,300.228,134.9568,56.33002,34.01086
1001541,306.3189,134.2139,56.85891,33.86436
1001573,311.8976,133.7496,57.33054,33.77255
1001611,317.3366,133.4153,57.779,33.70633
1001645,322.1764,133.2816,58.1689,33.6798
1001677,326.6911,133.2025,58.52507,33.6641
1001711,331.2836,133.4498,58.8801,33.71316
1001745,335.4042,135.3153,59.19257,34.08136
1001778,339.3978,137.5745,59.49005,34.52301
1001813,343.1117,138.0928,59.76207,34.62368
1001847,346.7486,137.8798,60.02422,34.58235
1001881,350.9603,137.9318,60.3227,34.59244
1001915,354.7011,138.2098,60.58331,34.64637
1001947,358.666,139.0962,60.855,34.81787
1001979,362.0103,140.0062,61.08064,34.99321
1002012,365.1183,140.8095,61.28749,35.14736
1002047,367.7476,141.271,61.46039,35.23567
1002081,369.9087,141.831,61.60106,35.34255
1002112,372.0305,142.2677,61.73795,35.42571
1002153,373.7134,142.9232,61.84567,35.5502
1002183,375.4969,143.7112,61.95901,35.69937
1002213,377.1971,144.7972,62.06627,35.90402
1002255,378.9526,146.9892,62.17623,36.31388
1002287,380.6766,149.6752,62.28345,36.8103
1002316,382.4077,152.0541,62.39035,37.24465
1002356,383.9739,153.9607,62.4864,37.5892
1002385,385.4745,155.2887,62.57786,37.82732
1002430,386.9658,156.6992,62.6682,38.07856
1002454,388.5893,158.4776,62.76593,38.39288
1002490,390.182,160.3663,62.86117,38.72374
1002526,391.9251,162.6413,62.96471,39.11823
1002557,393.4758,164.8077,63.0562,39.48983
1002586,395.2635,167.6603,63.16097,39.97316
1002626,397.1598,170.5397,63.27129,40.45418
1002659,399.1321,173.4678,63.38514,40.93637
1002692,400.9542,177.1734,63.48951,41.53667
1002729,402.3766,180.5057,63.57047,42.06715
1002759,403.5414,183.621,63.63643,42.55519
1002793,404.6732,186.4524,63.70023,42.99224
1002826,406.0499,189.348,63.77744,43.43287
1002863,407.1618,191.8151,63.83949,43.80329
1002895,408.7984,194.8943,63.93033,44.25925
1002933,410.2437,197.8727,64.01006,44.69366
1002960,411.8723,201.3996,64.09937,45.19978
1002997,413.5268,204.8848,64.18952,45.69122
1003038,415.0322,208.3052,64.27103,46.16527
1003063,416.4252,211.6462,64.34603,46.62057
1003097,417.7196,215.0044,64.41537,47.07061
1003138,418.9568,218.0363,64.4813,47.47051
1003167,419.9374,220.8239,64.53334,47.83289
1003196,420.7445,223.3697,64.57602,48.15948
1003234,421.3283,225.9526,64.60681,48.48663
1003267,421.5366,228.3435,64.61778,48.78575
1003298,421.4737,230.7596,64.61447,49.08443
1003332,421.303,232.832,64.60548,49.33781
1003366,421.1127,234.8883,64.59545,49.58665
1003404,420.9297,236.9264,64.5858,49.83082
1003445,420.8599,238.3394,64.58212,49.99866
1003470,420.8574,239.7341,64.58198,50.16319
1003505,420.8495,240.7174,64.58157,50.27851
1003536,420.7925,241.5928,64.57856,50.3807
1003575,420.6603,242.2663,64.57158,50.45904
1003608,420.5451,242.7518,64.56549,50.51534
1003643,420.313,243.3525,64.55322,50.58482
1003674,420.1303,243.7749,64.54356,50.63355
1003706,419.8344,244.2296,64.52789,50.6859
1003747,419.5861,244.5709,64.51472,50.72512
1003781,419.3942,244.8334,64.50454,50.75523
1003810,419.5662,244.6313,64.51366,50.73205
