Time Stamp(ms),Intersection,,Angle,
,x,y,x,y
472897.7,315.7929,236.9176,57.65284,49.82976
472914.1,315.8311,236.1652,57.65597,49.73991
472933.2,315.995,235.5741,57.66941,49.66908
472947.6,316.3568,234.9973,57.69903,49.59977
472972.7,316.7215,234.4403,57.72883,49.53265
472988.2,317.0042,234.251,57.75191,49.5098
472996.6,317.1993,233.8633,57.76781,49.46292
473011.4,317.3648,233.0862,57.78129,49.36871
473030.8,317.5658,232.3003,57.79766,49.27304
473048.4,317.8692,231.5469,57.82232,49.181
473063.8,318.1232,231.0058,57.84295,49.11467
473079.3,318.5697,230.3883,57.87915,49.03877
473096.2,319.0558,229.7942,57.91848,48.96551
473114.5,319.551,229.1683,57.95845,48.88811
473132.7,319.8099,228.7382,57.97931,48.83478
473147.4,320.0677,228.3661,58.00006,48.78856
473164.3,320.2393,228.0376,58.01387,48.74767
473180.8,320.381,227.7124,58.02525,48.70713
473198.4,320.4366,227.2503,58.02971,48.64942
473212.2,320.4677,226.3898,58.03222,48.54158
473231,320.5301,225.6721,58.03722,48.4513
473250,320.4282,225.1105,58.02904,48.38043
473264.6,320.2579,224.733,58.01536,48.33268
473279.9,320.0399,224.4538,57.99783,48.29731
473296.1,319.7933,224.2964,57.97798,48.27734
473314.5,319.5593,224.3641,57.95911,48.28592
473331.9,319.2933,224.648,57.93766,48.32191
473348.1,318.8593,225.4422,57.90259,48.42232
473365.2,318.4059,226.2134,57.86587,48.51943
473381.3,317.7251,227.0016,57.81061,48.6183
473398.3,317.0819,227.5876,57.75825,48.69156
473413.7,316.1686,228.1146,57.68362,48.75726
473432.3,315.2998,228.3507,57.61235,48.78664
473447.9,314.2771,228.3565,57.5281,48.78736
473465,313.124,228.314,57.43262,48.78208
473480.6,311.6739,228.1105,57.31186,48.75674
473497.2,310.4301,227.9103,57.20763,48.73181
473514.2,308.9955,227.5759,57.08669,48.6901
473531.8,307.7755,227.2368,56.9832,48.64773
473547.8,306.6568,226.8765,56.88782,48.60263
473563.9,305.5107,226.2803,56.78957,48.52784
473583.1,304.6177,225.7224,56.71267,48.45763
473598.2,303.7754,225.256,56.63985,48.39881
473614.2,303.1448,224.6953,56.58514,48.32791
473629.5,302.5653,224.3145,56.53472,48.27963
473648.8,302.12,224.1501,56.4959,48.25876
473672.2,301.7953,224.153,56.46753,48.25914
473681.4,301.6559,224.2925,56.45534,48.27684
473696.8,301.3975,224.4592,56.43272,48.29799
473712.2,301.3111,225.0049,56.42515,48.36708
473733.7,301.3286,225.8251,56.42669,48.47057
473751.4,301.3939,226.6926,56.43241,48.57958
473763.4,301.4696,227.8054,56.43903,48.71873
473778.7,301.5631,229.1549,56.44722,48.88646
473795.1,301.6945,230.9128,56.45872,49.10325
473816.2,301.7759,232.266,56.46584,49.26887
473831.7,301.8492,233.7568,56.47224,49.45003
473847.4,301.8488,235.0053,56.47221,49.60073
473866.2,301.8808,235.9082,56.475,49.70914
473880.1,301.8648,236.7679,56.47361,49.81192
473897.4,301.8131,237.504,56.46909,49.89957
473912.9,301.7184,238.3928,56.4608,50.00498
473930.5,301.5505,239.264,56.44612,50.10786
473946.4,301.3929,240.0779,56.43232,50.20357
473963.1,301.2589,240.8294,56.42057,50.29161
473979.2,301.1969,241.2533,56.41515,50.34113
473997.3,301.1517,241.8552,56.41118,50.41125
474012.4,301.1623,242.4791,56.41211,50.48373
474030.4,301.2031,243.2805,56.41569,50.57651
474046,301.2675,244.414,56.42134,50.7071
474063.3,301.449,245.8802,56.43723,50.87495
474079.2,301.6779,247.4292,56.45727,51.05098
474095.1,302.0281,249.726,56.48787,51.30954
474114.7,302.3812,251.892,56.51868,51.55074
474129.6,302.7235,254.1868,56.5485,51.80352
474148.1,303.1545,256.7659,56.58598,52.08427
474163.9,303.5268,259.2676,56.6183,52.35328
474179.2,303.8279,261.4558,56.64439,52.58591
474197.6,304.0675,263.6584,56.66513,52.8176
474213.2,304.2535,265.3925,56.68122,52.99829
474231,304.2985,266.4309,56.68511,53.10578
474248.9,304.2561,267.5052,56.68145,53.21641
474264.9,304.1946,268.4568,56.67613,53.31393
474281.7,303.988,269.2922,56.65826,53.39918
474298.5,303.8324,270.0053,56.64479,53.47169
474315.5,303.6139,270.6183,56.62585,53.53381
474335.8,303.497,270.8926,56.61572,53.56155
474351.9,303.4775,270.9344,56.61402,53.56578
474365.6,303.6254,271.2134,56.62684,53.59394
474385.9,303.7735,271.9203,56.63968,53.66516
474396.7,303.9713,272.9748,56.6568,53.77095
474412.1,304.3164,274.6282,56.68665,53.93575
474432.2,304.722,276.0207,56.72167,54.07354
474447.9,305.2346,277.5272,56.76583,54.22158
474464.6,305.7124,278.834,56.8069,54.34916
474483.1,306.2035,280.0773,56.84902,54.4698
474496.1,306.6526,281.3282,56.88746,54.59046
474515.1,307.0525,282.3989,56.92161,54.69319
474532.2,307.4398,283.256,56.95464,54.77503
474549.9,307.7479,284.1285,56.98087,54.85803
474566.7,308.0902,285.0087,57.00996,54.94139
474581.7,308.3171,285.6993,57.02922,55.00657
474598.3,308.5139,286.3632,57.04591,55.06902
474616,308.7278,286.9555,57.06403,55.12458
474633.1,308.9879,287.3494,57.08604,55.16143
474650,309.1591,287.7692,57.10052,55.20064
474666.9,309.3411,288.3131,57.1159,55.25133
474683.4,309.5574,288.8229,57.13416,55.29872
474699.4,309.774,289.2907,57.15242,55.34211
474714.9,310.0082,289.8458,57.17215,55.39347
474730,310.3234,290.2662,57.19867,55.43228
474751.2,310.5387,290.8101,57.21675,55.48238
474766.3,310.7827,291.3974,57.23724,55.53632
474783.2,311.049,291.7741,57.25957,55.57085
474798.8,311.3266,292.2728,57.28281,55.61647
474814.9,311.5924,292.8777,57.30505,55.67166
474832.4,311.972,293.2461,57.33675,55.70519
474849.3,312.4153,293.3591,57.3737,55.71547
474864.4,312.7508,293.6148,57.40163,55.7387
474884.2,313.1021,293.9359,57.43081,55.76783
474902.1,313.4614,294.2676,57.46061,55.79788
474917,313.7523,294.6128,57.48471,55.8291
474932.4,314.1016,294.9102,57.5136,55.85596
474948.8,314.3597,295.0858,57.53492,55.8718
474964.9,314.6206,295.1684,57.55644,55.87925
474980.3,314.8244,295.2523,57.57323,55.8868
474998.8,314.9779,295.3558,57.58588,55.89613
475012.6,315.126,295.4541,57.59806,55.90498
475031.4,315.2378,295.6858,57.60725,55.92583
475048.1,315.2924,295.7761,57.61174,55.93394
475064.9,315.3187,295.795,57.61391,55.93564
475081.8,315.4091,295.7444,57.62134,55.9311
475098.2,315.4141,295.742,57.62174,55.93088
475114.1,315.3394,295.817,57.61561,55.93762
475131.4,315.3884,296.0543,57.61964,55.95894
475151.6,315.3628,296.2123,57.61753,55.97312
475168,315.2976,296.181,57.61217,55.97031
475182.4,315.3993,295.8887,57.62053,55.94407
475200.2,315.8552,294.9302,57.65794,55.85776
475217.5,316.4235,294.0382,57.70448,55.7771
475233.9,317.1758,293.3225,57.7659,55.71214
475252.4,317.7991,293.1456,57.81662,55.69604
475268.9,318.517,293.0623,57.87487,55.68847
475284.6,319.387,293.0418,57.94522,55.6866
475301.4,320.2228,292.8677,58.01254,55.67075
475318.1,321.0616,292.7496,58.07984,55.65998
475335.1,321.9115,292.7101,58.14778,55.65638
475347.9,322.8758,292.5839,58.22455,55.64487
475366.1,323.6303,292.5791,58.28439,55.64443
475382.8,324.469,292.6647,58.35067,55.65224
475398.2,325.2716,292.7389,58.41386,55.659
475415.1,326.0615,292.8857,58.47583,55.67238
475432.3,326.9152,293.1642,58.54256,55.69775
475456.1,327.5364,293.3488,58.59096,55.71453
475471.3,328.1585,293.5033,58.6393,55.72857
475486.1,328.9044,293.6621,58.69707,55.74299
475503.7,329.552,293.838,58.74709,55.75895
475519.8,330.2016,293.9614,58.7971,55.77014
475537,330.9358,293.981,58.85347,55.77192
475553.1,331.5896,293.9426,58.9035,55.76844
475568.3,332.3287,293.9337,58.95989,55.76763
475586,332.9729,293.9552,59.00889,55.76958
475603,333.6335,294.0154,59.05899,55.77504
475619.2,334.2068,294.0394,59.10235,55.77721
475634,334.8076,293.9697,59.14768,55.77089
475650,335.4307,293.8768,59.19456,55.76247
475667.7,335.9119,293.819,59.23067,55.75723
475684.7,336.3498,293.7652,59.26347,55.75234
475701.4,336.7102,293.6485,59.29042,55.74176
475717.6,336.9857,293.6679,59.311,55.74352
475734.2,337.2744,293.7799,59.33252,55.75368
475751.3,337.4965,293.8914,59.34907,55.76379
475768.8,337.6584,294.0977,59.36113,55.78249
475785,337.75,294.4594,59.36794,55.81523
475803.4,337.737,294.9367,59.36697,55.85835
475818.8,337.7063,295.2382,59.36469,55.88553
475836.1,337.6242,295.573,59.35858,55.91568
475852.8,337.4181,295.7869,59.34323,55.93492
475870.3,337.2328,295.9464,59.32943,55.94925
475886.1,337.0011,296.0196,59.31214,55.95583
475902,336.6916,295.9615,59.28903,55.95061
475919.9,336.4718,295.8665,59.2726,55.94207
475934.4,336.1871,295.8067,59.2513,55.9367
475951.8,335.929,295.7021,59.23196,55.9273
475971,335.664,295.7166,59.21208,55.9286
475987.9,335.2985,295.5693,59.18462,55.91535
476005.7,334.9598,295.4381,59.15914,55.90354
476020.3,334.5324,295.3965,59.12693,55.8998
476040,334.0998,295.4288,59.09427,55.90271
476052.1,333.5812,295.5172,59.05503,55.91066
476066.4,332.8693,295.5998,59.00102,55.91809
476084,331.771,295.5429,58.91736,55.91298
476101.1,330.4094,295.3214,58.81308,55.89304
476117,328.5358,294.8467,58.66854,55.85022
476133.7,325.4883,293.8797,58.43088,55.76273
476154.3,322.3061,292.9535,58.17923,55.67856
476172.1,319.5433,292.3828,57.95783,55.62652
476188.4,316.5399,291.8569,57.71399,55.57843
476205.2,313.298,291.3019,57.44706,55.52756
476222.9,308.9427,290.5002,57.08222,55.45384
476245.8,307.6669,290.2216,56.97397,55.42816
476254.5,305.5776,289.8595,56.79533,55.39473
476268.9,303.0684,289.4718,56.5785,55.35888
476290.7,301.216,289.2164,56.41682,55.33522
476302.6,299.3036,288.9247,56.24845,55.30817
476319.2,297.4183,288.6279,56.081,55.28061
476334.7,295.3347,288.1525,55.89423,55.23637
476352.3,293.5666,287.6875,55.73432,55.19302
476369.9,291.8659,287.3984,55.57926,55.16602
476386,290.0518,286.9916,55.41249,55.12796
476402.4,288.229,286.5699,55.2435,55.08843
476420.3,286.0765,286.0622,55.04207,55.04073
476436.6,284.1563,285.6501,54.86066,55.00193
476453.1,282.2355,285.2852,54.67755,54.96751
476468.8,280.1964,284.8526,54.48132,54.92664
476486.4,278.3626,284.4706,54.30323,54.89047
476505.1,276.5376,283.9875,54.12446,54.84464
476521.3,274.7783,283.5323,53.95064,54.80136
476538.8,273.0742,283.0313,53.78089,54.75361
476555.3,271.3757,282.5206,53.61032,54.70483
476573.4,269.7751,282.0521,53.4483,54.65997
476588.9,268.2112,281.5919,53.2888,54.61581
476605.9,266.6349,281.2024,53.12683,54.57837
476624.1,265.428,280.8335,53.00198,54.54283
476638.7,264.1085,280.308,52.86464,54.4921
476655.3,262.8339,279.8004,52.73116,54.443
476673.2,261.8873,279.4157,52.63149,54.40569
476687.9,261.0053,279.1058,52.53821,54.37559
476703.5,260.1497,278.8509,52.44734,54.3508
476720.5,259.4619,278.587,52.37402,54.32511
476737.2,259.0347,278.4957,52.32837,54.31621
476754.5,258.8596,278.4135,52.30962,54.30819
476773.2,258.6538,278.3776,52.28757,54.3047
476787.3,258.7829,278.4791,52.30141,54.31459
476804,258.8323,278.4572,52.3067,54.31246
476819.7,259.0462,278.4153,52.3296,54.30838
476838.4,259.2327,278.2448,52.34954,54.29174
476857.7,259.4364,278.1198,52.3713,54.27954
476873.3,259.5362,278.0522,52.38195,54.27294
476890.4,259.6096,277.8906,52.38979,54.25714
476906.9,259.6289,277.6825,52.39185,54.23679
476923.8,259.5778,277.4995,52.3864,54.21887
476939.1,259.4657,277.2101,52.37443,54.19052
476955.2,259.2463,276.826,52.351,54.15281
476971.7,259.0511,276.5733,52.33012,54.12797
476989.4,258.8814,276.2691,52.31196,54.09802
477006.8,258.7065,275.9865,52.29322,54.07016
477024.1,258.4514,275.64,52.26587,54.03596
477038.1,258.111,275.3308,52.22931,54.00539
477054.7,257.5218,274.9846,52.1659,53.9711
477073.1,256.9869,274.6617,52.10817,53.93907
477089.1,256.5116,274.4778,52.05674,53.92081
477105,255.9915,274.3025,52.00034,53.90339
477122.2,255.5903,274.1026,51.95674,53.8835
477138.4,255.277,273.9009,51.92263,53.86341
477154.7,254.9475,273.6323,51.8867,53.83664
477173,254.6243,273.4346,51.85139,53.81691
477188.5,254.3345,273.1564,51.81969,53.78911
477207.9,254.0892,272.7966,51.79283,53.75311
477224.7,253.894,272.3937,51.77143,53.71272
477241.3,253.6868,271.9206,51.74868,53.66519
477257,253.5438,271.5082,51.73297,53.62367
477270.8,253.45,270.8257,51.72266,53.55478
477291.9,253.2707,270.0458,51.70294,53.4758
477310.7,253.099,269.3488,51.68404,53.40495
477322.9,252.9571,268.7846,51.66842,53.34743
477339.8,252.8789,268.0117,51.65979,53.26838
477356.9,252.8103,267.2597,51.65223,53.19118
477374.1,252.7557,266.5097,51.64621,53.11391
477390.3,252.8138,265.7065,51.65261,53.03085
477405.6,252.9419,264.9008,51.66674,52.94721
477424.3,253.1396,264.1321,51.68852,52.86711
477441.8,253.2988,263.4544,51.70604,52.79624
477458.1,253.4822,262.813,51.72621,52.72896
477473.9,253.7063,262.071,51.75083,52.65087
477493.4,253.9292,261.4796,51.77528,52.58842
477507.3,254.194,260.8253,51.80431,52.51913
477524,254.4553,260.1975,51.83292,52.45243
477541.1,254.6567,259.6187,51.85493,52.39077
477557.1,254.8323,258.9914,51.87412,52.32373
477573.2,254.9885,258.2973,51.89117,52.24933
477594.7,255.0943,257.6061,51.90271,52.17498
477611.8,254.8166,258.3037,51.87241,52.25002
477625.2,254.8082,257.9766,51.87148,52.21487
477642.3,254.7738,257.588,51.86773,52.17303
477658.6,254.7069,257.1753,51.86042,52.12851
477676.2,254.6189,256.6666,51.85081,52.07353
477692.4,254.5515,256.1426,51.84343,52.01675
477709.5,254.4557,255.7218,51.83296,51.97104
477725,254.3162,255.2708,51.81769,51.92196
477743.8,254.1928,254.8729,51.80418,51.87855
477758.5,254.0654,254.4243,51.79022,51.82952
477776.2,253.8729,253.7525,51.76911,51.75589
477794.4,253.6736,253.1461,51.74723,51.68923
477809.1,253.5253,252.5944,51.73095,51.62841
477824.2,253.3347,251.8195,51.70999,51.54271
477840.1,253.1407,251.0736,51.68863,51.4599
477858.7,253.0262,250.4261,51.67603,51.38778
477873.3,252.9398,249.5493,51.66652,51.28975
477895.1,252.8607,248.5299,51.65779,51.17525
477909.2,252.8229,247.6054,51.65363,51.07092
477926.2,252.8203,246.6191,51.65334,50.95908
477942,252.8269,245.1622,51.65406,50.7929
477960,252.8412,243.9161,51.65564,50.64982
477974.9,252.8637,242.6105,51.65812,50.49897
477995.6,252.8749,241.1815,51.65936,50.33275
478011.9,252.8386,240.103,51.65535,50.20651
478024.6,252.7676,238.8693,51.64752,50.06131
478040.9,252.7491,237.5937,51.64548,49.91023
478057,252.773,236.4935,51.64812,49.77916
478072.6,252.7595,235.3898,51.64663,49.64696
478090.4,252.7982,234.3657,51.6509,49.52365
478109,252.8354,233.3857,51.655,49.40506
478122.8,252.8559,232.563,51.65726,49.30507
478139.5,252.9063,231.8849,51.66281,49.22233
478155.6,252.9111,231.3448,51.66334,49.15624
478173.3,252.8867,230.8082,51.66065,49.0904
478191,252.8191,230.2224,51.6532,49.01834
478206.3,252.7184,229.3287,51.64209,48.90797
478222.5,252.6025,228.4483,51.6293,48.79877
478239.6,252.4462,227.5573,51.61205,48.68778
478255.2,252.2845,226.6443,51.59417,48.57352
478272.4,252.1135,225.6257,51.57526,48.44546
478290.6,251.958,224.8784,51.55804,48.35108
478305.7,251.7321,223.5971,51.53302,48.18845
478327.5,251.5939,222.958,51.5177,48.10694
478339.6,251.4436,222.1868,51.50102,48.00825
478355.5,251.2715,221.3125,51.48191,47.89589
478375.8,251.1548,220.7186,51.46893,47.8193
478392.2,251.0764,220.2281,51.46021,47.75587
478406.1,250.9592,219.7244,51.44718,47.69056
478423,250.8272,219.3114,51.43249,47.63689
478439.4,250.7515,219.1561,51.42405,47.61669
478457.1,250.681,219.0284,51.4162,47.60006
478473.2,250.5941,218.7421,51.40651,47.56274
478490,250.552,218.446,51.40182,47.52409
478506,250.4574,218.3855,51.39127,47.51618
478526.3,250.4931,218.0643,51.39525,47.47418
478542.6,250.4615,217.7629,51.39173,47.4347
478558.8,250.4931,217.4606,51.39525,47.39505
478572.5,250.4494,217.1254,51.39038,47.351
478590.3,250.4405,216.5866,51.38939,47.28006
478606.7,250.435,216.0142,51.38877,47.20447
478627.3,250.4416,215.2682,51.38951,47.10564
478640.3,250.371,214.8411,51.38163,47.0489
478656.9,250.2901,214.3611,51.3726,46.98499
478673.3,250.1377,213.8765,51.35558,46.9203
478690.1,249.9694,213.251,51.33677,46.83657
478708.2,249.7005,212.8079,51.30668,46.77711
478727.5,249.4335,212.3228,51.27677,46.71186
478743.1,249.0629,211.9172,51.23519,46.65716
478759,248.761,211.6512,51.20125,46.62123
478774.8,248.4246,211.404,51.16339,46.58782
478793.6,248.1419,210.8723,51.13152,46.51578
478807.6,247.9102,210.6176,51.10536,46.4812
478823.9,247.6548,210.5058,51.0765,46.46601
478842,247.4629,210.3027,51.05478,46.4384
478859.1,247.2706,210.0501,51.03302,46.40401
478877.1,247.0777,209.8469,51.01115,46.37631
478892.6,246.8436,209.8083,50.98458,46.37105
478910.2,246.6151,209.8703,50.95862,46.37951
478927.8,246.4127,209.836,50.93562,46.37482
478946.7,246.2421,209.7844,50.91619,46.36779
478959.8,245.9807,209.5693,50.88641,46.33843
478975.1,245.687,209.293,50.8529,46.30068
478992.7,245.4217,209.0735,50.82259,46.27065
479010.2,245.0352,208.8835,50.77836,46.24463
479025.7,244.5882,208.6595,50.7271,46.21392
479042.2,244.0756,208.6719,50.66818,46.21561
479058.5,243.5316,208.329,50.6055,46.16854
479075,242.9935,208.1645,50.54332,46.14594
479091.9,242.434,208.0774,50.4785,46.13395
479108.8,241.8382,208.0236,50.40928,46.12655
479125.3,241.2094,207.9529,50.336,46.11683
479144.6,240.6606,208.0979,50.27186,46.13677
479161.3,240.1896,207.9893,50.21668,46.12183
479177.5,239.7578,207.9801,50.16597,46.12057
479190.8,239.3458,207.8946,50.11749,46.1088
479210.3,239.0656,207.8037,50.08447,46.09628
479228.4,238.8784,207.7916,50.06238,46.09461
479245.4,238.755,207.7462,50.04781,46.08835
479260.3,238.6777,207.6728,50.03868,46.07824
479276.3,238.6641,207.4878,50.03707,46.05272
479304.3,238.661,207.3428,50.0367,46.0327
479318.1,238.6476,207.2275,50.03511,46.01678
479331.5,238.6888,207.0827,50.03998,45.99678
479347.1,238.7269,206.907,50.04449,45.97247
479363.1,238.7807,206.8463,50.05084,45.96406
479376.7,238.8041,206.6253,50.05361,45.93346
479394.5,238.8661,206.5928,50.06093,45.92895
479412.6,238.9172,206.7014,50.06696,45.944
479428.2,238.9682,206.965,50.07298,45.9805
479445.4,239.0092,207.3479,50.07782,46.03342
479460.3,239.1134,208.1091,50.09011,46.13831
479475.9,239.2441,209.1449,50.10551,46.28042
479494.1,239.514,210.8453,50.1373,46.51212
479514.3,239.7668,212.4421,50.16703,46.72792
479529.8,240.1724,214.8306,50.21466,47.04751
479546.4,240.7447,218.0238,50.28171,47.46887
479560.7,241.1553,221.2238,50.32969,47.88447
479578.5,241.4591,224.7045,50.36512,48.32907
479594.3,241.8098,228.8539,50.40598,48.84914
479613.2,242.0487,232.1669,50.43376,49.25677
479628.3,242.2194,235.7481,50.45359,49.68996
479644.3,242.2648,239.2033,50.45887,50.1007
479660.9,242.3067,242.4719,50.46373,50.48289
479677.2,242.3169,246.007,50.46491,50.8894
479693.9,242.2598,250.2856,50.45828,51.3721
479711.4,242.1961,254.2063,50.45089,51.80565
479727.2,242.0998,258.5251,50.4397,52.27377
479744.5,242.0559,262.8578,50.4346,52.73367
479759.8,242.0626,267.0798,50.43538,53.17267
479775.9,242.0596,271.9281,50.43502,53.66594
479795.3,242.1042,276.7175,50.44021,54.14215
479812.2,242.1683,281.3582,50.44765,54.59336
479830.5,242.2294,285.5874,50.45475,54.99602
479843.9,242.2872,290.1671,50.46146,55.42313
479865,242.3999,293.6825,50.47455,55.74484
479876.8,242.5538,297.5899,50.49239,56.09631
479893,242.7684,301.877,50.51727,56.47467
479911.3,242.8965,305.9048,50.5321,56.82341
479927.7,242.9922,309.7723,50.54317,57.15228
479944.4,243.1553,313.1321,50.56203,57.4333
479961.1,243.4347,316.0829,50.59431,57.67661
479976.7,243.7185,318.671,50.62705,57.88735
479993.4,243.9256,321.5266,50.65092,58.11704
480010.7,244.1303,324.3281,50.67447,58.33954
480028.1,244.3683,327.1568,50.70185,58.56141
480044.7,244.5975,329.5546,50.72817,58.74729
480062.3,244.7707,332.2425,50.74804,58.95332
480078.8,245.0067,335.0029,50.7751,59.16238
480103.7,245.248,336.7843,50.80272,59.29596
480115.3,245.4514,338.3711,50.82598,59.41407
480127.2,245.8662,340.8629,50.87335,59.59789
480146.1,246.2815,343.1107,50.92068,59.762
480161.4,246.863,345.3472,50.98679,59.92369
480178.1,247.4087,347.236,51.04865,60.05904
480194.1,248.0681,349.0802,51.1232,60.19012
480211.5,248.8838,350.1732,51.21507,60.26733
480227.8,249.7455,351.1082,51.31172,60.33308
480244,250.8585,351.4039,51.43597,60.35382
480263.5,251.8656,352.2556,51.54781,60.41341
480277.2,252.8978,352.9341,51.66188,60.46073
480292.9,254.2467,353.5084,51.81008,60.50067
480310.9,255.5939,353.7068,51.95713,60.51445
480327.5,257.1429,353.858,52.12502,60.52494
480345,258.6036,354.43,52.28219,60.56456
480365.6,260.0783,354.6445,52.43975,60.57939
480377.4,261.6148,354.524,52.60271,60.57106
