Time Stamp(ms),Intersection,,Angle,
,x,y,x,y
1435954,270.5484,254.8798,53.52673,51.8793
1435971,269.3786,255.2348,53.40798,51.91803
1435987,267.877,255.5894,53.25457,51.95664
1436004,266.2904,255.8978,53.09126,51.99017
1436023,264.966,256.049,52.95399,52.00658
1436038,263.608,256.4719,52.81232,52.05245
1436054,262.1639,256.8152,52.66066,52.08961
1436071,260.8701,257.1588,52.52387,52.12673
1436087,259.4973,257.3372,52.37781,52.14599
1436103,258.1596,257.5971,52.23453,52.17401
1436120,257.0144,257.9794,52.11115,52.21517
1436136,255.5151,258.6828,51.94855,52.29068
1436154,254.1698,259.273,51.80166,52.35385
1436171,253.1157,260.0548,51.68589,52.43724
1436186,251.841,260.9724,51.54508,52.53473
1436204,250.3328,261.7872,51.37737,52.62092
1436220,248.8051,262.6812,51.20622,52.71511
1436236,247.1423,263.4889,51.01847,52.79985
1436253,245.6424,264.5495,50.84781,52.91064
1436269,243.9705,265.6967,50.65608,53.02983
1436286,242.2544,266.5943,50.45766,53.12263
1436303,240.3811,267.372,50.23914,53.20272
1436320,238.5541,268.4354,50.02406,53.31174
1436340,236.8381,269.4232,49.82029,53.41251
1436351,234.622,270.7743,49.55457,53.54959
1436374,232.7593,272.0745,49.32896,53.68066
1436390,230.8546,273.2601,49.09611,53.79948
1436405,228.7753,274.4148,48.83939,53.91455
1436422,226.9044,275.3012,48.60614,54.00246
1436436,225.1785,276.1246,48.38902,54.08379
1436451,222.968,277.2646,48.10822,54.19585
1436471,221.2876,277.9573,47.89269,54.26367
1436486,219.2983,278.4814,47.6352,54.31482
1436503,217.5102,279.0071,47.40156,54.366
1436518,215.6403,279.3079,47.15499,54.39523
1436534,213.7164,279.5062,46.8989,54.41447
1436551,211.8289,279.856,46.64525,54.44838
1436568,210.0845,280.2101,46.40869,54.48264
1436584,208.4084,280.3912,46.17945,54.50014
1436602,207.1079,280.4182,46.00026,54.50275
1436617,205.9072,280.5417,45.83377,54.51468
1436633,205.044,280.5858,45.71346,54.51894
1436651,204.2529,280.6148,45.60276,54.52174
1436668,203.5119,280.573,45.49865,54.5177
1436686,202.9273,280.5826,45.41625,54.51863
1436702,202.4713,280.5659,45.35181,54.51702
1436718,201.9838,280.276,45.28275,54.48901
1436735,201.3572,280.0529,45.19374,54.46744
1436751,200.51,279.8165,45.07296,54.44455
1436770,199.7395,279.6599,44.96265,54.42938
1436784,198.7917,279.5009,44.82639,54.41396
1436801,197.6914,279.2766,44.6674,54.39219
1436819,196.702,279.1427,44.52368,54.37918
1436834,195.311,278.8862,44.32042,54.35424
1436857,193.9371,278.7073,44.11825,54.33683
1436873,192.5841,278.5386,43.91782,54.32039
1436892,191.51,278.2564,43.75771,54.29288
1436903,190.353,277.7395,43.5843,54.24237
1436919,189.3185,277.0859,43.42841,54.17833
1436935,188.1811,276.3112,43.25605,54.10218
1436953,187.2843,275.6105,43.11948,54.03305
1436968,186.3638,275.0389,42.97866,53.97648
1436986,185.4685,274.5804,42.84107,53.931
1437002,184.6638,273.9812,42.71688,53.87141
1437019,183.8503,273.3361,42.59082,53.80707
1437036,183.2712,272.6119,42.50077,53.7346
1437054,182.5975,271.8276,42.39568,53.65583
1437070,182.0366,271.2319,42.30793,53.59581
1437091,181.8196,270.6279,42.27391,53.53477
1437104,181.8244,269.9038,42.27467,53.46138
1437119,181.9001,269.0999,42.28654,53.37959
1437138,181.7054,268.1815,42.256,53.28577
1437157,181.4491,267.2964,42.21575,53.19495
1437169,181.4211,265.953,42.21134,53.05637
1437192,181.2509,264.7458,42.18458,52.93108
1437207,180.825,263.4667,42.11753,52.79753
1437224,180.5196,262.3652,42.06935,52.68187
1437236,180.0744,261.1353,41.99899,52.55198
1437252,179.6587,259.8406,41.93314,52.41443
1437269,179.1954,258.3469,41.8596,52.25465
1437291,178.7297,257.0076,41.78551,52.11041
1437304,177.9409,255.6934,41.65963,51.96795
1437319,176.7341,254.034,41.46609,51.78677
1437336,176.1045,252.3299,41.36464,51.59919
1437354,175.7464,250.3842,41.30681,51.38311
1437376,174.9348,248.8342,41.17534,51.20949
1437387,173.8478,247.0721,40.99845,51.01051
1437403,172.9693,245.158,40.85477,50.79242
1437423,172.3703,243.2181,40.75646,50.56929
1437442,172.108,241.2464,40.71331,50.34032
1437457,171.8948,239.1944,40.67821,50.09966
1437474,171.8272,237.0454,40.66706,49.84499
1437491,172.2089,234.9242,40.72992,49.59098
1437510,172.6037,232.9981,40.79479,49.358
1437524,173.107,231.0419,40.87733,49.11909
1437540,173.8915,228.9918,41.00558,48.86624
1437557,174.735,226.9872,41.14291,48.6165
1437575,175.8377,224.7592,41.32156,48.336
1437593,176.7884,222.861,41.47482,48.09455
1437609,177.8875,220.9158,41.6511,47.84475
1437628,178.8369,219.1367,41.80259,47.61417
1437641,179.8578,217.1743,41.9647,47.35744
1437657,180.7254,214.966,42.10181,47.06551
1437676,180.7754,212.0439,42.1097,46.67426
1437690,180.4224,208.9141,42.05399,46.24882
1437707,179.5327,205.8394,41.91316,45.82434
1437725,178.9054,203.8688,41.81349,45.54884
1437742,178.4995,202.3866,41.74883,45.33982
1437757,178.8563,201.1445,41.80568,45.16347
1437775,179.9927,199.4361,41.98606,44.91911
1437791,182.2977,197.7563,42.3488,44.67681
1437809,184.6967,196.0108,42.72196,44.42286
1437825,187.38,194.3491,43.13408,44.17903
1437842,190.3786,192.8917,43.58815,43.9635
1437857,193.619,191.835,44.07126,43.80625
1437875,196.6125,190.8927,44.51065,43.66532
1437890,199.5797,190.1104,44.93973,43.54781
1437909,201.9575,189.9392,45.27903,43.52204
1437926,204.0323,189.8732,45.5718,43.5121
1437940,205.5026,189.9022,45.77744,43.51646
1437956,206.8303,190.0143,45.96186,43.53336
1437973,207.5406,190.2585,46.06001,43.5701
1437990,208.3137,189.7118,46.16645,43.48778
1438007,209.1306,188.767,46.27846,43.34497
1438023,210.2846,187.5538,46.43593,43.16059
1438041,211.5835,186.8158,46.61209,43.04789
1438058,212.7559,186.2947,46.77012,42.96806
1438072,213.8691,185.8039,46.91932,42.89269
1438093,214.6589,185.5704,47.02467,42.85676
1438108,215.2313,185.4061,47.10075,42.83146
1438124,215.4859,185.5733,47.13453,42.8572
1438141,215.7288,185.998,47.16671,42.92252
1438158,215.9876,186.3947,47.20096,42.98341
1438175,216.3123,187.0896,47.24387,43.08975
1438192,216.8019,188.2808,47.30843,43.27121
1438207,217.4564,189.8963,47.39449,43.51558
1438225,218.1348,191.5374,47.4834,43.76181
1438241,219.1353,193.6693,47.61398,44.07869
1438257,220.247,195.181,47.75831,44.30135
1438277,221.9004,196.6647,47.9715,44.51825
1438295,223.4187,197.6521,48.16572,44.66171
1438307,225.4821,198.7999,48.42735,44.82758
1438327,227.4116,200.0471,48.66958,45.00674
1438345,229.6454,201.3971,48.94713,45.19942
1438361,231.6434,202.3614,49.19281,45.33626
1438376,233.6877,203.6613,49.44166,45.51967
1438392,235.6986,205.0329,49.68402,45.71191
1438409,238.0713,207.0069,49.9669,45.98628
1438428,239.9719,209.3296,50.19114,46.30568
1438442,241.8499,212.0221,50.41064,46.67131
1438460,243.7718,215.7669,50.6332,47.17176
1438477,245.4501,219.3505,50.82584,47.64198
1438493,247.038,223.237,51.00665,48.14256
1438510,248.3877,227.9143,51.15923,48.73231
1438527,249.4765,232.4196,51.28159,49.28759
1438543,250.1818,236.6837,51.36051,49.80187
1438558,250.2055,240.8663,51.36316,50.29593
1438575,250.1505,244.0684,51.35701,50.66735
1438592,249.9353,246.6796,51.33295,50.96595
1438609,250.0547,249.2912,51.3463,51.26081
1438625,250.2092,251.9462,51.36357,51.55674
1438641,250.3407,255.2402,51.37825,51.91861
1438658,250.522,258.7018,51.39848,52.29271
1438674,250.8169,262.5791,51.43134,52.70437
1438691,251.0916,266.1674,51.46191,53.07856
1438711,251.3694,268.9606,51.49277,53.36538
1438724,251.6787,272.278,51.5271,53.70111
1438742,251.9442,275.4883,51.55652,54.02097
1438758,252.0732,278.7122,51.5708,54.33731
1438774,252.1948,283.746,51.58425,54.82169
1438797,252.2814,286.7139,51.59383,55.10194
1438815,252.4365,289.4523,51.61097,55.35707
1438830,252.6814,292.8484,51.63802,55.66899
1438845,252.9243,296.4507,51.66479,55.99449
1438860,253.1109,299.7802,51.68536,56.29055
1438876,253.2812,302.8833,51.7041,56.5624
1438894,253.459,306.196,51.72365,56.84838
1438912,253.642,308.9309,51.74376,57.08122
1438927,253.7652,311.3355,51.75729,57.28356
1438945,253.9146,313.6489,51.77368,57.47615
1438962,254.0263,315.5203,51.78593,57.63047
1438979,254.1675,317.0821,51.80141,57.75826
1438993,254.5169,318.6705,51.83965,57.88731
1439012,254.8247,320.0295,51.87328,57.99699
1439027,255.4091,321.0739,51.93702,58.08083
1439042,256.1457,322.2866,52.01709,58.17768
1439063,256.8781,323.2867,52.09641,58.25716
1439078,257.5012,324.1915,52.16368,58.32876
1439097,258.1497,325.1735,52.23347,58.40615
1439109,258.8651,326.0813,52.31021,58.47738
1439127,259.6378,326.8187,52.39281,58.53503
1439145,260.1954,327.6487,52.45221,58.5997
1439161,260.7907,328.3217,52.51546,58.65196
1439180,261.214,329.1058,52.56031,58.71265
1439196,261.6756,329.9287,52.60913,58.77611
1439214,262.077,330.4691,52.6515,58.81766
1439228,262.5721,330.8949,52.70363,58.85033
1439245,263.1162,331.3328,52.7608,58.88387
1439262,263.7656,331.4246,52.82881,58.89088
1439276,264.4087,331.7845,52.89597,58.91839
1439293,265.3616,332.0234,52.99509,58.93662
1439314,266.2366,331.9872,53.0857,58.93386
1439331,267.3599,331.9527,53.20148,58.93122
1439344,268.8796,331.7985,53.35712,58.91946
1439365,270.5811,331.5872,53.53004,58.90332
1439380,273.2096,330.6672,53.79443,58.83287
1439396,276.0665,329.7904,54.07806,58.76546
1439410,279.2705,328.7982,54.3916,58.68886
1439427,283.4095,327.3821,54.78966,58.57895
1439446,287.6394,326.0007,55.18853,58.47107
1439462,291.4854,324.7657,55.5444,58.37405
1439476,295.7729,323.3562,55.93365,58.26267
1439493,299.8814,322.016,56.29947,58.15611
1439515,303.1984,321.0429,56.58979,58.07835
1439527,306.449,320.1494,56.87004,58.00663
1439544,309.1938,319.2207,57.10345,57.9318
1439560,311.7764,318.1941,57.32042,57.8487
1439576,314.0846,317.2768,57.5122,57.77413
1439593,316.2743,316.2491,57.69227,57.69022
1439612,318.3197,315.196,57.85889,57.60381
1439627,320.259,314.0527,58.01545,57.50956
1439647,321.8382,312.7244,58.14193,57.39943
1439662,323.4175,311.515,58.26753,57.29858
1439676,325.0467,310.4392,58.39618,57.2084
1439692,326.9669,309.1057,58.5466,57.09601
1439714,328.5783,307.9242,58.67184,56.99585
1439726,330.1954,306.7216,58.79663,56.89335
1439742,331.9737,305.4456,58.93283,56.78398
1439766,333.6221,304.3907,59.05813,56.69307
1439779,335.1743,303.3731,59.17528,56.60497
1439796,336.7426,302.4688,59.29285,56.52632
1439814,338.5529,301.2904,59.42755,56.42334
1439831,339.9451,300.4263,59.53041,56.34748
1439844,341.5043,299.5937,59.64487,56.27408
1439863,343.3359,298.6695,59.77835,56.1923
1439880,344.983,297.8414,59.89747,56.11871
1439894,346.5592,297.0732,60.01067,56.05019
1439909,348.3384,296.089,60.13752,55.96205
1439927,350.0928,294.9256,60.26167,55.85735
1439947,351.7979,293.8835,60.38141,55.76308
1439960,353.6065,292.7172,60.50748,55.65702
1439978,355.4265,291.7599,60.63335,55.56955
1439996,357.0599,290.8374,60.7455,55.48489
1440012,358.9154,289.7599,60.87194,55.38552
1440030,360.4271,288.9206,60.97423,55.30779
1440045,362.0229,288.0313,61.08149,55.22509
1440061,363.4266,287.2322,61.17525,55.15047
1440078,364.7209,286.5306,61.2612,55.08474
1440094,366.0071,285.7925,61.34615,55.01535
1440109,367.0641,285.2003,61.41563,54.9595
1440126,367.9395,284.6686,61.47293,54.90922
1440143,368.8586,284.1318,61.53286,54.85834
1440160,369.5896,283.6354,61.58038,54.81116
1440175,370.2648,283.1543,61.62412,54.76534
1440193,370.8985,282.6885,61.66508,54.72087
1440210,371.4132,282.2686,61.69825,54.68071
1440227,371.71,281.8004,61.71735,54.63583
1440243,372.0836,281.3498,61.74136,54.59255
1440260,372.3893,280.8044,61.76098,54.54003
1440276,372.6205,280.2766,61.7758,54.48908
1440293,372.8601,279.7497,61.79115,54.43808
1440310,373.022,279.1449,61.80151,54.3794
1440327,373.188,278.7531,61.81212,54.34129
1440345,373.3308,278.1671,61.82125,54.28415
1440361,373.4918,277.7965,61.83153,54.24794
1440378,373.6963,277.3027,61.84458,54.19959
1440393,373.9491,276.7523,61.86069,54.14557
1440412,374.2475,276.0943,61.8797,54.0808
1440427,374.5991,275.467,61.90206,54.01886
1440444,375.0298,274.9041,61.9294,53.96312
1440462,375.5199,274.2791,61.96046,53.90106
1440480,376.0294,273.5434,61.99268,53.82776
1440494,376.693,272.7644,62.03455,53.74988
1440511,377.3591,271.7985,62.07645,53.6529
1440528,377.9714,270.8675,62.11487,53.55901
1440544,378.6628,269.8924,62.15813,53.46022
1440563,379.3246,268.884,62.19943,53.35757
1440579,379.9302,267.9021,62.23712,53.25714
1440596,380.4553,267.0015,62.26973,53.16461
1440611,380.9984,265.8542,62.30338,53.04615
1440629,381.4691,264.8541,62.33247,52.94236
1440645,381.9441,263.8415,62.36179,52.83675
1440662,382.3828,262.6553,62.38881,52.71238
1440679,382.7819,261.5879,62.41335,52.59986
1440694,383.1657,260.4508,62.43691,52.47936
1440711,383.5875,259.1903,62.46276,52.34501
1440733,383.9169,258.1438,62.48292,52.23284
1440751,384.2724,256.9664,62.50464,52.10595
1440766,384.5184,255.9897,62.51965,52.00015
1440779,384.807,254.9347,62.53725,51.8853
1440796,385.0222,253.8941,62.55035,51.77143
1440815,385.1313,253.0456,62.55699,51.67817
1440832,385.1011,252.2954,62.55515,51.59538
1440848,385.175,251.4783,62.55965,51.50487
1440865,385.1913,250.7537,62.56065,51.4243
1440881,385.0058,250.2944,62.54936,51.37308
1440898,384.7778,249.9442,62.53547,51.33395
1440915,384.5474,249.6829,62.52142,51.30471
1440932,384.2114,249.6503,62.50092,51.30106
1440949,383.8658,249.613,62.47979,51.29689
1440966,383.403,249.7798,62.45145,51.31556
1440982,383.0107,249.9021,62.4274,51.32925
1440998,382.7121,249.9418,62.40906,51.33368
1441013,382.437,249.9611,62.39215,51.33584
1441032,382.314,250.1204,62.38457,51.35365
1441048,382.2678,250.1834,62.38173,51.36069
1441064,382.1837,250.4671,62.37655,51.39235
1441081,382.1615,250.6701,62.37518,51.41498
1441098,382.204,250.8229,62.3778,51.43201
1441113,382.1572,251.1006,62.37492,51.4629
1441133,381.9458,251.3823,62.36189,51.49421
1441148,381.7364,251.6106,62.34898,51.51954
1441164,381.577,251.914,62.33914,51.55318
1441183,381.3772,252.121,62.3268,51.57609
1441199,381.1971,252.4208,62.31567,51.60924
1441213,380.958,252.8102,62.30087,51.65222
1441231,380.7208,253.2475,62.28619,51.7004
1441249,380.5449,253.5616,62.27528,51.73494
1441265,380.4232,253.7714,62.26774,51.75797
1441281,380.2617,254.1041,62.25771,51.79446
1441298,380.1558,254.4034,62.25114,51.82723
1441315,380.0652,254.722,62.24551,51.86207
1441332,379.9691,254.9473,62.23954,51.88667
1441348,379.8775,255.1951,62.23384,51.9137
1441364,379.7651,255.3446,62.22685,51.92999
1441386,379.6597,255.4486,62.22029,51.94132
1441398,379.5721,255.4603,62.21484,51.94259
1441415,379.5223,255.3713,62.21175,51.9329
1441433,379.4477,255.3614,62.2071,51.93182
1441447,379.3216,255.392,62.19924,51.93515
1441465,379.1492,255.3406,62.18849,51.92956
1441484,378.9563,255.378,62.17646,51.93362
1441497,378.7789,255.3524,62.16539,51.93084
1441515,378.6621,255.2282,62.15809,51.9173
1441532,378.5479,255.2107,62.15095,51.9154
1441548,378.2731,255.4115,62.13376,51.93728
1441581,378.1223,255.4876,62.12432,51.94556
1441598,377.9795,255.5092,62.11537,51.94791
1441614,377.8199,255.4859,62.10537,51.94537
1441631,377.6841,255.4448,62.09686,51.9409
1441649,377.5426,255.4483,62.08797,51.94128
1441662,377.8739,255.1343,62.10876,51.90707
1441676,377.846,255.1003,62.10701,51.90336
1441688,377.8537,254.9348,62.10749,51.88531
1441701,377.8398,254.87,62.10662,51.87823
1441717,377.8163,254.7816,62.10515,51.86858
1441731,377.8836,254.6707,62.10936,51.85646
1441751,377.9842,254.5651,62.11567,51.84492
1441769,378.0618,254.4789,62.12053,51.83549
1441782,378.1587,254.4075,62.1266,51.82769
1441798,378.2347,254.5032,62.13136,51.83815
1441816,378.3239,254.5366,62.13694,51.8418
1441832,378.4509,254.5195,62.14488,51.83994
1441848,378.5467,254.4804,62.15088,51.83566
1441865,378.7057,254.48,62.16081,51.83562
1441885,378.8362,254.4096,62.16896,51.82792
1441898,378.8637,254.3592,62.17068,51.8224
1441914,378.9416,254.3677,62.17554,51.82333
1441934,378.981,254.4062,62.178,51.82754
1441952,379.0171,254.4012,62.18026,51.82699
1441969,379.0143,254.3438,62.18008,51.82071
1441981,379.0329,254.2789,62.18124,51.81361
1441999,379.0752,254.1645,62.18388,51.80108
1442013,379.1325,254.0692,62.18745,51.79064
1442030,379.2412,253.9469,62.19423,51.77723
1442049,379.2994,253.84,62.19786,51.7655
1442064,379.3583,253.699,62.20153,51.75002
1442081,379.4096,253.5486,62.20473,51.7335
1442100,379.4274,253.4924,62.20583,51.72733
1442114,379.4629,253.4019,62.20805,51.71737
1442131,379.4865,253.2965,62.20951,51.70578
1442149,379.509,253.2753,62.21092,51.70345
1442169,379.5638,253.1512,62.21433,51.6898
1442186,379.598,253.0295,62.21646,51.67639
1442198,379.5627,252.9783,62.21426,51.67075
1442215,379.5976,252.9026,62.21643,51.66241
1442232,379.6882,252.7131,62.22207,51.64151
1442254,379.7627,252.5784,62.2267,51.62664
1442273,379.7746,252.5846,62.22744,51.62733
1442286,379.8498,252.6135,62.23212,51.63052
1442304,379.9157,252.5053,62.23622,51.61857
1442319,379.8861,252.468,62.23438,51.61445
1442334,379.8464,252.3797,62.23191,51.60469
1442354,379.7457,252.341,62.22565,51.60042
1442366,379.6371,252.3311,62.21889,51.59933
1442384,379.5302,252.285,62.21224,51.59423
1442399,379.4254,252.1999,62.20571,51.58482
1442416,379.3109,252.067,62.19857,51.57012
1442438,379.1977,251.9929,62.19152,51.56191
1442452,378.9637,251.9528,62.17693,51.55747
1442469,378.6988,251.8833,62.16038,51.54977
1442488,378.3852,251.851,62.14078,51.5462
1442504,377.9857,251.7548,62.11576,51.53554
1442517,377.4243,251.7285,62.08054,51.53262
1442534,376.9249,251.7183,62.04915,51.53149
1442552,376.5542,251.6772,62.0258,51.52693
1442570,376.0987,251.6372,61.99706,51.52249
1442586,375.7419,251.5712,61.97451,51.51517
1442603,375.5539,251.4789,61.96261,51.50493
1442622,375.4284,251.4308,61.95467,51.4996
1442637,375.4939,251.4171,61.95881,51.49807
1442651,375.5411,251.3911,61.9618,51.49519
1442669,375.648,251.4666,61.96857,51.50356
1442684,375.8066,251.5328,61.9786,51.51091
1442702,375.8903,251.6123,61.98389,51.51973
1442717,375.8793,251.7371,61.9832,51.53357
1442733,375.8113,251.8367,61.9789,51.54461
1442751,375.8169,251.8857,61.97925,51.55005
1442768,375.8263,251.8327,61.97984,51.54417
1442784,375.8132,251.8431,61.97902,51.54532
1442803,375.7958,251.8031,61.97792,51.54088
1442817,375.7968,251.7692,61.97798,51.53713
1442834,375.8253,251.6433,61.97979,51.52317
1442852,375.8954,251.5917,61.98421,51.51745
1442868,376.0195,251.5294,61.99205,51.51054
1442884,376.1473,251.5096,62.00013,51.50834
1442901,376.2905,251.5415,62.00917,51.51188
1442916,376.5256,251.5231,62.02399,51.50983
1442933,376.7093,251.5145,62.03557,51.50888
1442952,376.8793,251.5353,62.04628,51.51119
1442967,377.0453,251.5271,62.05672,51.51028
1442983,377.1647,251.4327,62.06423,51.49981
1443001,377.3391,251.3989,62.07519,51.49605
1443018,377.5404,251.2696,62.08783,51.48169
1443034,377.7368,251.0775,62.10016,51.46034
1443051,377.879,251.0406,62.10907,51.45624
1443067,378.0256,251.0516,62.11827,51.45746
1443084,378.231,250.8885,62.13113,51.43931
1443102,378.3751,250.6801,62.14014,51.41609
1443120,378.5141,250.52,62.14883,51.39825
1443137,378.6737,250.3652,62.15881,51.38099
1443153,378.8282,250.2644,62.16847,51.36974
1443170,378.9454,250.0675,62.17578,51.34774
1443183,378.9164,250.0866,62.17397,51.34987
1443200,379.0739,249.9865,62.1838,51.33869
1443216,379.3595,249.7731,62.20161,51.31481
1443234,379.7325,249.4701,62.22483,51.28087
1443252,380.0277,249.2411,62.24318,51.25519
1443271,380.3985,249.026,62.2662,51.23104
1443288,380.8045,248.5959,62.29137,51.18269
1443300,381.3056,248.1229,62.32238,51.12938
1443319,381.7512,247.7098,62.3499,51.08271
1443334,382.2866,247.1122,62.38289,51.01506
1443351,382.8018,246.4829,62.41457,50.9436
1443368,383.2545,245.9585,62.44236,50.88387
1443384,383.7309,245.4052,62.47154,50.8207
1443400,384.0859,244.771,62.49324,50.74807
1443417,384.3686,244.0682,62.51051,50.66733
1443433,384.6785,243.3172,62.52942,50.58074
1443454,384.9003,242.6527,62.54293,50.50386
1443468,385.064,241.7417,62.55289,50.39804
1443489,385.1659,241.2239,62.5591,50.3377
1443501,385.2715,240.4792,62.56552,50.25063
1443518,385.3486,239.6736,62.57021,50.15607
1443534,385.3951,238.7473,62.57304,50.0469
1443556,385.4621,238.0896,62.57711,49.96907
1443568,385.5081,237.2566,62.5799,49.87014
