Time Stamp(ms),Intersection,,Angle,
,x,y,x,y
1456100,315.6097,243.2224,57.63781,50.56979
1456117,315.1087,243.2024,57.59663,50.56748
1456134,314.7811,243.3135,57.56967,50.58032
1456149,314.4745,243.4575,57.54439,50.59694
1456166,314.239,243.6067,57.52495,50.61416
1456183,314.1912,243.8499,57.521,50.6422
1456204,314.2402,243.9186,57.52505,50.65011
1456217,314.3762,243.9624,57.53628,50.65515
1456233,314.4686,243.9603,57.5439,50.6549
1456249,314.5567,243.8915,57.55117,50.64699
1456264,314.5424,243.9091,57.54999,50.64902
1456282,314.5655,243.9138,57.55189,50.64956
1456301,314.4973,243.917,57.54628,50.64992
1456316,314.3502,243.6756,57.53413,50.6221
1456334,314.2605,243.3536,57.52673,50.58495
1456349,314.1684,243.1504,57.51912,50.56147
1456366,314.1696,243.1846,57.51922,50.56542
1456384,314.2315,243.1706,57.52433,50.5638
1456399,314.3853,243.1741,57.53703,50.56421
1456416,314.4795,242.9491,57.5448,50.53818
1456432,314.5649,242.4995,57.55185,50.4861
1456454,314.6965,242.2487,57.56269,50.457
1456471,314.7643,242.246,57.56828,50.45668
1456488,314.8172,242.4016,57.57264,50.47474
1456502,314.8649,242.4923,57.57657,50.48526
1456517,314.9275,242.6474,57.58172,50.50325
1456535,315.0527,242.6772,57.59203,50.5067
1456552,315.1829,242.6014,57.60274,50.49792
1456568,315.431,242.5998,57.62313,50.49773
1456584,315.6782,242.7289,57.64343,50.51268
1456602,316.0298,242.9682,57.67226,50.5404
1456619,316.287,243.2066,57.69331,50.56797
1456634,316.5077,243.4309,57.71136,50.59388
1456653,316.6836,243.7117,57.72574,50.62627
1456668,316.9424,244.0443,57.74687,50.66459
1456686,317.1339,244.257,57.76248,50.68905
1456704,317.3157,244.3585,57.77729,50.70072
1456720,317.4625,244.3345,57.78925,50.69796
1456734,317.5872,244.1899,57.7994,50.68134
1456751,317.6492,244.2031,57.80444,50.68285
1456769,317.6497,244.4578,57.80448,50.71213
1456786,317.5258,244.9799,57.7944,50.77202
1456800,317.3296,245.5556,57.77843,50.83789
1456816,317.1017,246.1424,57.75986,50.90484
1456834,316.7731,246.9259,57.73305,50.99393
1456854,316.5396,247.3854,57.71397,51.04602
1456871,316.3094,247.8906,57.69515,51.10315
1456886,316.1005,248.4391,57.67805,51.16502
1456902,315.9373,248.9306,57.66468,51.22032
1456916,315.8284,249.2573,57.65575,51.25701
1456933,315.782,249.3798,57.65194,51.27074
1456953,315.8042,249.3804,57.65377,51.27082
1456966,315.8663,249.2406,57.65886,51.25513
1456983,315.9463,249.2021,57.66542,51.25082
1457003,316.1047,249.1495,57.67839,51.24491
1457019,316.2539,249.0364,57.69061,51.23221
1457035,316.4692,248.9977,57.70822,51.22786
1457053,316.8546,249.1286,57.7397,51.24257
1457070,317.2744,249.3052,57.77394,51.26238
1457087,317.7077,249.6122,57.8092,51.29679
1457102,318.2436,250.0987,57.85272,51.35123
1457118,318.6694,250.7189,57.88722,51.42042
1457135,319.1652,251.5785,57.92731,51.51598
1457154,319.4843,252.5408,57.95307,51.6225
1457172,319.7714,253.8201,57.97621,51.76331
1457189,319.9874,254.8303,57.9936,51.8739
1457204,320.092,255.6641,58.00202,51.96476
1457219,320.1934,256.5306,58.01017,52.05881
1457236,320.1759,257.2621,58.00876,52.13789
1457254,320.1876,257.7189,58.0097,52.18713
1457270,320.1702,257.9821,58.0083,52.21545
1457286,320.2147,258.4124,58.01189,52.26168
1457305,320.2544,258.6639,58.01508,52.28866
1457320,320.2817,258.9102,58.01727,52.31504
1457334,320.2744,259.1532,58.01669,52.34104
1457357,320.2855,259.5506,58.01757,52.3835
1457370,320.2379,259.6991,58.01376,52.39934
1457388,320.117,260.0278,58.00403,52.43437
1457404,319.9474,260.5149,57.99038,52.48618
1457426,319.7929,261.0096,57.97794,52.53867
1457442,319.5487,261.5884,57.95826,52.59992
1457453,319.3448,262.3003,57.94182,52.67503
1457471,319.1287,262.9559,57.92436,52.74397
1457488,318.8446,263.7026,57.9014,52.82222
1457505,318.5994,264.2917,57.88155,52.88376
1457520,318.3562,264.8521,57.86184,52.94215
1457535,318.0729,265.4258,57.83887,53.00174
1457554,317.7937,265.9504,57.81618,53.05611
1457571,317.5096,266.3889,57.79308,53.10144
1457588,317.1443,266.711,57.76333,53.13467
1457605,316.7822,267.0186,57.73379,53.16636
1457620,316.4074,267.1729,57.70316,53.18225
1457638,316.0707,267.3158,57.67561,53.19695
1457653,315.7082,267.3839,57.64589,53.20395
1457670,315.3466,267.3877,57.6162,53.20433
1457688,314.9417,267.3101,57.58289,53.19636
1457704,314.5555,267.2736,57.55107,53.1926
1457720,314.2408,267.2845,57.5251,53.19373
1457735,313.9095,267.2626,57.49771,53.19148
1457753,313.5842,267.4333,57.47079,53.20903
1457769,313.3139,267.7164,57.44838,53.23809
1457787,313.104,268.1371,57.43097,53.28122
1457804,312.9651,268.8996,57.41943,53.35916
1457819,312.8085,269.6976,57.40642,53.44043
1457837,312.6555,270.7058,57.3937,53.54266
1457853,312.5519,272.2025,57.38508,53.69353
1457869,312.3492,273.667,57.3682,53.8401
1457890,311.9843,275.2045,57.33778,53.99288
1457911,311.6185,276.5749,57.30723,54.12812
1457921,311.2859,277.8355,57.27941,54.25176
1457936,310.9155,279.0215,57.24838,54.3674
1457953,310.3471,279.9131,57.20066,54.45391
1457970,309.719,280.3786,57.14778,54.49893
1457988,309.0569,280.6047,57.09188,54.52076
1458003,308.4541,280.7883,57.04084,54.53847
1458019,307.8526,280.904,56.98977,54.54963
1458036,307.2476,281.1099,56.93826,54.56946
1458054,306.6423,281.2326,56.88657,54.58127
1458071,306.0287,281.1552,56.83404,54.57382
1458088,305.5056,281.1703,56.78913,54.57528
1458104,304.9843,281.1696,56.74428,54.5752
1458121,304.3779,281.1611,56.69197,54.57439
1458137,303.8744,281.2294,56.64842,54.58096
1458154,303.294,281.3201,56.59809,54.58968
1458169,302.7134,281.455,56.54762,54.60266
1458187,302.1068,281.6628,56.49474,54.62262
1458203,301.487,281.9121,56.44056,54.64655
1458219,300.8897,282.1953,56.3882,54.67369
1458241,300.2268,282.5657,56.32992,54.70914
1458256,299.6571,282.9546,56.27969,54.74629
1458271,299.0127,283.3955,56.22271,54.78833
1458288,298.4086,283.7601,56.16914,54.82303
1458304,297.8111,284.1183,56.11601,54.85706
1458320,297.2711,284.4735,56.06787,54.89075
1458336,296.7083,284.6658,56.01756,54.90895
1458355,296.2327,284.6536,55.97495,54.9078
1458372,295.8,284.4829,55.9361,54.89164
1458389,295.4523,284.1421,55.90482,54.85931
1458406,295.1766,283.9181,55.87999,54.83804
1458421,295.1115,283.6958,55.87412,54.81691
1458437,295.0275,283.638,55.86654,54.81142
1458454,295.088,283.5889,55.87199,54.80674
1458471,295.1591,283.6381,55.87841,54.81142
1458488,295.2367,283.6773,55.8854,54.81516
1458505,295.293,283.7682,55.89047,54.8238
1458521,295.3961,283.6118,55.89976,54.80892
1458539,295.4674,283.3969,55.90618,54.78846
1458554,295.5453,282.8454,55.91319,54.73587
1458573,295.574,282.4803,55.91577,54.70097
1458591,295.615,282.0975,55.91946,54.66432
1458605,295.6406,281.6294,55.92176,54.61942
1458622,295.6276,281.1759,55.9206,54.57581
1458639,295.5578,280.6419,55.91432,54.52435
1458654,295.4847,279.9222,55.90774,54.45479
1458672,295.3838,279.1997,55.89865,54.38472
1458689,295.1933,278.3562,55.88149,54.30261
1458708,295.0518,277.6956,55.86873,54.23808
1458723,294.9654,276.9987,55.86094,54.16977
1458738,295.002,276.4627,55.86424,54.11709
1458754,295.0181,275.8597,55.86569,54.05765
1458772,295.0398,275.1644,55.86765,53.98891
1458789,295.1899,274.5998,55.88118,53.93293
1458806,295.357,274.0934,55.89624,53.88258
1458823,295.683,273.3816,55.92557,53.81161
1458842,296.2674,272.5322,55.97806,53.72661
1458857,296.701,271.8876,56.01691,53.66187
1458871,297.5905,271.107,56.09636,53.58321
1458895,298.7272,270.4946,56.19741,53.52129
1458909,299.8964,269.9401,56.3008,53.46506
1458923,301.508,269.3609,56.4424,53.40618
1458940,303.3311,268.9287,56.60131,53.36213
1458955,306.0366,268.4956,56.83471,53.3179
1458974,308.3337,268.2511,57.03063,53.29289
1458990,310.8866,267.972,57.24595,53.26431
1459006,313.8758,267.7277,57.49493,53.23925
1459023,316.5352,267.5004,57.71362,53.21592
1459039,319.4523,266.9749,57.95049,53.16187
1459055,322.5744,266.3458,58.20059,53.09698
1459076,325.1736,265.835,58.40615,53.04416
1459092,327.9533,265.3321,58.62337,52.99202
1459108,330.5569,264.824,58.8244,52.93922
1459124,333.144,264.1424,59.02188,52.86818
1459141,335.5375,263.521,59.20258,52.80322
1459158,337.5692,262.7894,59.35448,52.72648
1459174,339.7443,262.0603,59.51561,52.64973
1459193,341.6307,261.3171,59.65412,52.57124
1459210,343.5432,260.4136,59.79339,52.47541
1459224,345.3686,259.6865,59.92524,52.39799
1459239,347.0997,259.0851,60.04931,52.33376
1459255,348.8958,258.4103,60.17707,52.26146
1459275,350.645,257.8317,60.30054,52.19928
1459292,351.9562,257.3895,60.39249,52.15163
1459307,353.2605,257.0045,60.48344,52.11007
1459323,354.7097,256.4533,60.5839,52.05043
1459341,356.1729,255.9149,60.6847,51.99203
1459357,357.5915,255.3928,60.78183,51.93524
1459373,359.0476,254.8926,60.88092,51.8807
1459390,360.3742,254.4939,60.97066,51.83714
1459406,361.7265,254.0114,61.06162,51.78429
1459423,363.2074,253.3539,61.16064,51.7121
1459439,364.7577,252.7154,61.26364,51.64176
1459460,365.9756,252.1911,61.34407,51.58385
1459475,367.3581,251.4514,61.43489,51.50188
1459490,368.7282,250.6612,61.52438,51.41399
1459507,369.9075,249.7817,61.60099,51.31577
1459524,371.1689,248.2122,61.68251,51.13944
1459540,372.2091,246.4253,61.74942,50.93705
1459556,373.1931,244.5741,61.81245,50.72549
1459574,373.9653,242.7621,61.86173,50.51653
1459590,374.7522,241.1706,61.91179,50.33148
1459607,375.3766,239.872,61.95139,50.1794
1459624,376.0909,238.7666,61.99656,50.04918
1459640,376.7835,237.8542,62.04024,49.94115
1459655,377.6544,236.9331,62.09499,49.83161
1459673,378.6504,236.2417,62.15736,49.74907
1459690,379.8145,235.5703,62.22993,49.66862
1459706,381.1455,234.9086,62.31248,49.5891
1459723,382.4434,234.1635,62.39254,49.49922
1459740,383.7017,233.6021,62.46975,49.4313
1459756,385.0077,233.1097,62.54947,49.37156
1459772,386.6129,232.3815,62.64688,49.28295
1459790,388.411,231.6765,62.75523,49.19685
1459806,390.2362,231.0935,62.8644,49.12543
1459823,392.1141,230.5992,62.97589,49.06471
1459839,394.1444,230.1461,63.09547,49.00893
1459855,396.3161,229.6839,63.22231,48.95189
1459872,398.4888,229.243,63.3481,48.89736
1459889,400.7106,228.8234,63.47561,48.84536
1459905,402.9807,228.4922,63.60471,48.80423
1459923,405.3674,227.9572,63.73921,48.73765
1459939,407.6056,227.426,63.86418,48.67138
1459958,409.7829,226.9002,63.98469,48.6056
1459972,412.1165,226.3574,64.11272,48.53752
1459989,414.2466,225.8715,64.22855,48.47642
1460006,416.5347,225.2182,64.35191,48.39404
1460022,418.6429,224.5716,64.4646,48.31223
1460039,420.5867,224.0693,64.56769,48.2485
1460055,422.564,223.5635,64.67175,48.18417
1460073,424.4987,223.018,64.77281,48.1146
1460089,426.0621,222.5989,64.85393,48.06103
1460106,428.0035,222.1699,64.95398,48.00608
1460126,429.4209,221.7604,65.02656,47.95351
1460145,430.7704,221.3649,65.09529,47.90264
1460156,432.1207,220.9596,65.16371,47.85041
1460171,433.6778,220.6577,65.24217,47.81143
1460190,434.8984,220.3658,65.30336,47.77369
1460208,436.0585,220.1322,65.36125,47.74345
1460226,437.0312,219.9911,65.40959,47.72515
1460242,437.8845,219.8505,65.45185,47.70692
1460258,438.6529,219.8343,65.4898,47.70482
1460274,439.3306,219.8854,65.52316,47.71145
1460291,439.8616,219.8102,65.54926,47.70169
1460309,440.3139,219.6576,65.57143,47.68188
1460324,440.6394,219.485,65.58737,47.65946
1460342,440.7632,219.4137,65.59343,47.6502
1460356,440.8398,219.1684,65.59718,47.61829
1460372,440.8991,218.8072,65.60007,47.57124
1460393,440.8426,218.4077,65.59731,47.51908
1460409,440.8032,218.0837,65.59539,47.47672
1460424,440.7281,217.7638,65.59171,47.43481
1460442,440.5697,217.3391,65.58396,47.37909
1460463,440.5468,217.0095,65.58284,47.33576
1460474,440.5357,216.7046,65.5823,47.29561
1460488,440.5424,216.4199,65.58263,47.25807
1460506,440.5739,216.1062,65.58417,47.21664
1460525,440.5718,215.859,65.58406,47.18395
1460545,440.5819,215.6467,65.58456,47.15584
1460560,440.8305,215.2923,65.59672,47.10885
1460575,440.9958,214.9531,65.6048,47.0638
1460592,441.1278,214.6517,65.61125,47.0237
1460610,441.2565,214.3185,65.61754,46.9793
1460624,441.4208,214.0285,65.62556,46.94061
1460641,441.5396,213.6485,65.63135,46.88981
1460657,441.6234,213.2216,65.63544,46.83263
1460673,441.8415,212.5325,65.64606,46.74008
1460692,441.9305,212.0984,65.6504,46.68161
1460707,441.921,211.5212,65.64994,46.60366
1460725,441.9424,210.8463,65.65099,46.51226
1460745,441.9417,210.5396,65.65095,46.4706
1460758,441.8271,209.9255,65.64537,46.38702
1460774,441.756,209.3731,65.64191,46.31163
1460791,441.6992,208.7782,65.63914,46.23019
1460808,441.5563,208.2217,65.63216,46.1538
1460827,441.4032,207.7961,65.62469,46.09522
1460842,441.2196,207.1028,65.61574,45.99955
1460859,441.0637,206.576,65.60812,45.92663
1460876,440.7479,206.2776,65.59268,45.88523
1460894,440.1345,206.1018,65.56264,45.86082
1460912,439.3485,205.7995,65.52405,45.81879
1460929,438.8012,205.4962,65.4971,45.77656
1460946,438.2678,205.0524,65.47079,45.71464
1460962,437.6206,204.5901,65.4388,45.64999
1460981,436.8431,204.0729,65.40026,45.57751
1460994,436.1496,203.6188,65.36579,45.5137
1461011,435.5298,203.1269,65.3349,45.44441
1461028,434.9001,202.5745,65.30345,45.36641
1461045,434.33,202.1211,65.2749,45.30222
1461059,433.8375,201.6278,65.2502,45.23222
1461075,433.5808,201.0918,65.2373,45.15596
1461093,433.5417,200.8127,65.23534,45.11617
1461110,433.6292,200.7136,65.23974,45.10204
1461126,433.8605,200.5279,65.25135,45.07552
1461144,434.2184,200.2605,65.26931,45.03729
1461161,434.3676,200.0246,65.27679,45.00352
1461177,434.3611,199.7269,65.27647,44.96085
1461194,434.1788,199.2794,65.26733,44.8966
1461211,433.8286,198.9831,65.24976,44.85397
1461227,433.3515,198.7762,65.22577,44.82417
1461243,432.7475,198.4252,65.19535,44.77354
1461261,431.9578,198.0973,65.15548,44.72616
1461279,431.3143,197.7445,65.12289,44.6751
1461294,430.5132,197.3282,65.08221,44.61473
1461310,429.646,197.0588,65.03805,44.57559
1461326,428.4488,196.7144,64.97682,44.52549
1461353,427.2204,196.3609,64.91371,44.47397
1461368,425.9617,196.0217,64.84874,44.42445
1461380,424.6656,195.6335,64.78149,44.36766
1461395,423.1191,195.2162,64.70083,44.30651
1461412,421.2905,194.8531,64.60482,44.2532
1461429,419.6792,194.4919,64.51966,44.20005
1461445,418.0239,194.0517,64.43161,44.13517
1461461,416.3158,193.5848,64.34016,44.0662
1461478,414.5632,193.2768,64.24569,44.02061
1461495,412.5334,193.0572,64.13546,43.98806
1461513,410.5448,192.952,64.02662,43.97245
1461529,408.2502,192.7547,63.89996,43.94316
1461545,405.9434,192.4448,63.77148,43.89709
1461562,403.7135,192.1756,63.64615,43.85703
1461579,401.1757,191.9386,63.50215,43.82171
1461595,398.2721,191.6813,63.33561,43.78331
1461613,395.5322,191.1398,63.17666,43.70234
1461629,391.977,190.7097,62.96778,43.63788
1461645,387.9987,190.4143,62.73045,43.59352
1461663,383.5748,190.093,62.46198,43.5452
1461679,378.3169,190.0842,62.1365,43.54388
1461694,372.9618,190.2484,61.79766,43.56858
1461711,367.5488,190.2027,61.44738,43.56171
1461728,363.0255,189.9476,61.14851,43.52331
1461745,357.9706,189.7884,60.80769,43.49932
1461762,352.9931,189.6502,60.46484,43.47849
1461778,348.3354,189.5003,60.13731,43.45586
1461795,343.386,189.289,59.78199,43.42395
1461812,338.1704,189.1497,59.39917,43.4029
1461831,334.1245,189.132,59.09613,43.40021
1461846,329.2083,189.1172,58.72056,43.39798
1461862,324.5329,189.0378,58.35571,43.38596
1461878,320.2788,188.9566,58.01704,43.37368
1461894,315.8874,188.8342,57.66059,43.35514
1461911,311.7135,188.675,57.31517,43.33101
1461928,307.6536,188.4763,56.97284,43.30089
1461946,303.8896,188.3272,56.64973,43.27825
1461963,300.2878,187.984,56.33529,43.22609
1461979,296.813,187.5557,56.02693,43.16088
1461995,293.469,187.1156,55.72546,43.09372
1462013,290.1192,186.5778,55.41872,43.01146
1462030,287.4209,186.1544,55.16812,42.94653
1462046,284.6344,185.7288,54.90599,42.88113
1462063,281.9739,185.3832,54.65248,42.82793
1462080,279.5716,184.9657,54.42082,42.76353
1462095,276.9354,184.6082,54.16356,42.70827
1462113,274.7641,184.3273,53.94923,42.6648
1462130,272.4859,184.0578,53.72197,42.62303
1462147,270.5998,183.8058,53.53194,42.5839
1462162,268.7548,183.5286,53.34438,42.54082
1462179,267.3076,183.3251,53.1961,42.50917
1462194,265.7224,183.0279,53.0325,42.46287
1462214,264.5342,182.6852,52.90905,42.40939
1462230,263.3865,182.2224,52.78913,42.33702
1462247,262.362,181.8007,52.68153,42.27095
1462263,261.2642,181.4333,52.56564,42.21326
1462279,260.0674,181.0547,52.43859,42.15372
1462295,258.7179,180.6565,52.29445,42.09095
1462314,257.4255,180.4526,52.15551,42.05877
1462331,256.1176,180.2186,52.01403,42.02179
1462347,254.6683,180.0545,51.8562,41.99583
1462364,253.1341,179.8358,51.68791,41.96122
1462380,251.5144,179.5926,51.50887,41.92267
1462398,250.0188,179.4014,51.3423,41.89232
1462413,248.2133,179.2617,51.13958,41.87014
1462431,246.5025,179.0583,50.94582,41.83782
1462448,244.9232,178.8019,50.76552,41.79701
1462463,243.1396,178.4865,50.56021,41.74676
1462480,241.5001,178.0339,50.36991,41.6745
1462496,239.5352,177.4148,50.13979,41.5754
1462514,237.5971,176.8983,49.91063,41.49248
1462530,235.3979,176.3207,49.64794,41.39952
1462552,232.8718,175.6998,49.34264,41.29927
1462566,230.4685,175.1637,49.04864,41.21248
1462586,228.3602,174.7911,48.78782,41.15202
1462598,226.0916,174.3255,48.50412,41.07631
1462617,223.971,174.002,48.23602,41.0236
1462633,222.0738,173.7781,47.99376,40.98706
1462650,220.3563,173.8536,47.77246,40.99939
1462672,218.811,174.0115,47.57173,41.02514
1462684,217.6017,174.1815,47.41357,41.05285
1462698,216.5282,174.4358,47.27235,41.09426
1462713,215.337,174.9735,47.11478,41.18163
1462731,214.4248,175.4234,46.99348,41.25455
1462748,213.6158,175.824,46.88544,41.31935
1462766,212.6479,176.5166,46.75559,41.43108
1462792,212.2428,176.8703,46.70107,41.48798
1462802,211.8272,177.2641,46.64501,41.55124
1462814,211.3094,177.5719,46.57501,41.60057
1462831,210.7747,177.8667,46.50254,41.64776
1462847,210.2111,178.219,46.42593,41.70407
1462867,209.7533,178.631,46.36354,41.7698
1462884,209.2144,179.0228,46.28992,41.83216
1462898,208.5178,179.408,46.19448,41.89337
1462915,207.638,179.6362,46.07344,41.92957
1462933,206.6186,179.9942,45.93253,41.98629
1462949,205.6083,180.4835,45.79217,42.06365
1462966,204.4213,181.2033,45.62635,42.17709
1462982,202.9776,182.0082,45.42335,42.30348
1462999,201.6025,182.913,45.22863,42.44494
1463016,199.546,184.5284,44.93489,42.69594
1463045,198.1619,185.8018,44.73549,42.89236
1463059,197.1629,186.943,44.59072,43.06734
1463071,196.3355,188.0847,44.47026,43.24141
1463084,195.584,189.2288,44.36042,43.41485
1463098,195.0374,190.5507,44.28027,43.61401
1463118,194.7938,192.0727,44.24448,43.8417
1463132,194.6962,193.5943,44.23012,44.0676
1463152,194.982,195.2841,44.27214,44.31647
1463165,195.2934,196.9638,44.31784,44.56178
1463186,195.7444,198.6959,44.3839,44.81259
1463205,196.7106,200.5396,44.52493,45.07719
1463218,197.3931,202.2014,44.62415,45.31359
1463234,198.2056,203.8891,44.74182,45.55169
1463250,199.1588,205.9284,44.87926,45.83672
1463267,200.0236,207.9349,45.00338,46.11434
1463285,200.8555,210.0098,45.12228,46.39852
1463300,201.5417,212.2076,45.21998,46.69633
1463317,202.024,214.437,45.28846,46.9951
1463333,202.1669,217.355,45.30872,47.38117
1463350,201.9971,220.1356,45.28464,47.74389
1463369,201.3371,223.4583,45.19089,48.17076
1463385,200.6347,226.8657,45.09077,48.60128
1463401,199.8635,229.9518,44.98045,48.98496
1463419,198.9604,233.445,44.8507,49.41225
1463433,197.8683,237.4226,44.69303,49.88989
1463452,197.0098,240.9676,44.56847,50.30776
1463469,196.1735,244.2321,44.44662,50.68618
1463485,195.4044,247.2919,44.33411,51.03543
1463502,194.7418,250.0909,44.23682,51.35035
1463517,194.0941,252.7788,44.14143,51.64876
1463534,193.5295,255.6964,44.05802,51.96828
1463553,192.9803,258.2767,43.97664,52.24712
1463568,192.395,261.1526,43.88969,52.55381
1463585,191.8084,264.1513,43.80228,52.86911
1463603,191.1902,267.7,43.70988,53.23641
1463617,190.6652,270.7849,43.6312,53.55066
1463633,189.9358,274.6649,43.52153,53.93938
1463651,189.2522,277.6541,43.41839,54.23401
1463667,188.3713,280.6844,43.28495,54.52845
1463685,187.3889,283.1057,43.13544,54.76071
1463700,186.342,285.7381,42.97532,55.01022
1463716,185.3767,288.2148,42.82692,55.24218
