Time Stamp(ms),Intersection,,Angle,
,x,y,x,y
867161.3,329.4438,242.9293,58.73874,50.53589
867177.6,329.4883,242.8344,58.74217,50.52491
867192.7,329.6006,242.7874,58.75083,50.51946
867210.1,329.6725,242.5601,58.75637,50.49313
867227,329.7513,242.3139,58.76244,50.46457
867244.1,329.9005,242.1997,58.77394,50.4513
867261.5,329.9897,242.389,58.7808,50.47328
867277.4,330.0732,242.4564,58.78723,50.4811
867293.5,330.1551,242.43,58.79353,50.47803
867311.2,330.3017,242.3001,58.8048,50.46296
867331.3,330.4303,242.3905,58.81468,50.47345
867346.8,330.5336,242.7238,58.82262,50.5121
867362.9,330.6435,242.9245,58.83105,50.53533
867380.7,330.7221,243.0784,58.83708,50.55314
867396,330.8412,243.0979,58.84621,50.5554
867411.4,330.8778,242.8195,58.84902,50.52318
867428.7,330.9166,242.3186,58.85199,50.46511
867445.6,330.9547,241.917,58.85491,50.41845
867465,330.9773,241.4695,58.85665,50.36633
867481.3,331.0043,240.8485,58.85872,50.29384
867495.8,331.0461,240.4764,58.86192,50.2503
867512.1,331.1122,240.11,58.86699,50.20734
867529.2,331.0117,239.9554,58.85928,50.1892
867547.8,330.8726,239.9535,58.84863,50.18897
867563.6,330.5209,240.2185,58.82164,50.22007
867580.3,330.0866,240.5731,58.78826,50.26163
867597.5,329.5126,240.8554,58.74405,50.29465
867613.4,328.7166,240.9627,58.68254,50.30719
867630.9,328.0507,240.8078,58.63093,50.28909
867647.1,327.1922,240.3335,58.56416,50.23355
867664.9,326.4911,239.7631,58.50945,50.1666
867682.3,325.7871,239.2641,58.45432,50.10786
867700.3,324.9989,238.7832,58.39241,50.05113
867714.3,324.1615,238.3239,58.32639,49.99683
867733.9,323.4438,237.9809,58.26962,49.95619
867750.8,322.7211,237.6919,58.21226,49.92189
867777.8,321.5619,237.2734,58.11987,49.87214
867795.6,320.8379,236.9934,58.06192,49.83881
867807.6,320.3129,236.8,58.01978,49.81574
867817.9,319.8319,236.6509,57.98108,49.79795
867829.1,319.2437,236.7206,57.93365,49.80627
867846.1,318.6604,237.0282,57.88649,49.84295
867865.1,318.1137,237.4355,57.84218,49.89142
867879.3,317.6487,237.9661,57.80439,49.95443
867899.4,317.1666,238.3873,57.76515,50.00433
867914.5,316.7956,238.7782,57.73489,50.05055
867931,316.4839,238.9333,57.70942,50.06886
867948.3,316.267,238.8059,57.69168,50.05382
867964.7,316.2001,238.441,57.68621,50.01068
867980,316.287,237.7832,57.69332,49.93274
867995.8,316.338,237.3497,57.69749,49.88121
868012.8,316.4387,236.9821,57.70572,49.83745
868030,316.4413,236.9314,57.70594,49.83142
868045.8,316.4713,237.0286,57.70839,49.843
868062.9,316.4485,237.1888,57.70652,49.86207
868079.8,316.4171,237.4002,57.70396,49.88723
868094.8,316.4044,237.6357,57.70292,49.91521
868112.9,316.35,237.7893,57.69847,49.93345
868128.6,316.2602,237.7598,57.69112,49.92996
868149.3,316.196,237.7659,57.68586,49.93068
868162.9,316.1207,237.8573,57.6797,49.94153
868180.3,316.0373,238.0443,57.67287,49.9637
868196.8,315.9722,238.2478,57.66754,49.98782
868213,315.9205,238.4055,57.6633,50.00648
868229.8,315.8213,238.4529,57.65517,50.01209
868247.1,315.77,238.4373,57.65096,50.01025
868263.1,315.6999,238.2758,57.64521,49.99113
868279.2,315.5653,238.0523,57.63417,49.96465
868298.4,315.4773,237.8776,57.62693,49.94394
868315.5,315.3606,237.811,57.61735,49.93603
868332,315.1994,237.7723,57.6041,49.93144
868348.3,315.0944,237.7492,57.59546,49.9287
868365.4,314.9468,237.8738,57.58331,49.94349
868382.6,314.7314,237.9783,57.56557,49.95588
868398.4,314.5751,238.0678,57.55269,49.96648
868414.6,314.4339,238.1557,57.54104,49.9769
868429.8,314.2648,238.3092,57.52708,49.99509
868447.1,314.0388,238.3192,57.50841,49.99627
868464.1,313.8572,238.3561,57.49339,50.00064
868479.9,313.6876,238.3035,57.47935,49.99441
868496.8,313.5128,238.3121,57.46487,49.99543
868513.4,313.2979,238.2854,57.44705,49.99226
868530.1,313.1132,238.2428,57.43173,49.98722
868546.8,312.9362,238.1401,57.41703,49.97506
868563.4,312.7843,238.048,57.40441,49.96414
868580.1,312.7053,238.113,57.39783,49.97184
868597.2,312.7149,238.1685,57.39864,49.97842
868612.6,312.7299,238.1875,57.39989,49.98067
868629.9,312.6804,238.1892,57.39576,49.98088
868647.3,312.6621,238.2144,57.39425,49.98386
868663.6,312.7309,238.2581,57.39996,49.98904
868680,312.7849,238.3768,57.40445,50.00309
868696.9,312.8246,238.466,57.40776,50.01364
868713.9,313.0139,238.4049,57.42348,50.00642
868730.6,313.2574,238.3796,57.4437,50.00341
868747.1,313.4277,238.2864,57.45782,49.99239
868764.1,313.6455,238.206,57.47587,49.98287
868780.6,313.8321,238.1682,57.49131,49.97839
868797.3,313.9396,237.9432,57.50021,49.95172
868813.6,314.0707,237.7922,57.51104,49.9338
868830.9,314.1911,237.6362,57.52099,49.91528
868849.4,314.2338,237.6083,57.52452,49.91196
868864.9,314.2685,237.5198,57.52739,49.90145
868885.2,314.1787,237.5067,57.51997,49.89989
868897.7,314.0712,237.5499,57.51109,49.90502
868914,313.8509,237.6087,57.49287,49.91201
868931.4,313.5023,237.7913,57.46401,49.93369
868952,312.9706,238.0108,57.41989,49.95973
868968.3,312.3868,238.2879,57.37133,49.99257
868985.6,311.6552,238.6349,57.3103,50.03361
868998.1,310.6342,239.063,57.22477,50.08417
869013.8,308.9639,239.5924,57.08402,50.14653
869034.1,307.3587,240.0651,56.94772,50.20207
869047.6,305.3256,240.5837,56.77366,50.26287
869065.1,302.7027,241.1652,56.54669,50.33084
869081.6,300.245,241.7314,56.33152,50.39685
869099.6,297.7734,242.2752,56.11265,50.46007
869116.9,295.3056,242.837,55.89161,50.5252
869132.1,293.0229,243.4124,55.68488,50.59174
869148.9,290.7604,244.1443,55.4778,50.67609
869166.1,288.6554,244.8558,55.28316,50.7578
869188.2,286.7117,245.4354,55.10173,50.82415
869202.3,285.0459,246.0319,54.94492,50.89224
869219.3,283.9041,246.5913,54.83672,50.95592
869235.4,282.686,247.1517,54.72064,51.01954
869252.3,281.7585,247.7462,54.63181,51.08683
869267.7,280.8445,248.4393,54.54389,51.16505
869283.7,280.1073,249.1703,54.47271,51.24725
869303.9,279.3894,249.6924,54.40314,51.30578
869318.8,278.8297,250.1145,54.34874,51.35299
869334.9,278.0576,250.6469,54.27346,51.41239
869354.3,277.41,250.9684,54.21011,51.4482
869371.8,276.8326,251.2693,54.15346,51.48166
869387.3,276.2507,251.4663,54.09621,51.50354
869403.3,275.6143,251.5457,54.03341,51.51235
869418.9,274.9852,251.6203,53.97116,51.52062
869435.9,274.2757,251.6809,53.90072,51.52734
869451.9,273.5217,251.5537,53.8256,51.51324
869468.4,272.8451,251.3598,53.75796,51.49171
869485.7,272.2238,251.2474,53.69566,51.47922
869500,271.5535,251.2626,53.62824,51.48092
869517.5,271.0262,251.223,53.57505,51.47651
869535.1,270.5491,251.0172,53.5268,51.45363
869553.6,270.1633,250.802,53.48771,51.42968
869570.2,270.0013,250.5781,53.47128,51.40473
869585.9,269.7089,250.0513,53.44158,51.34592
869603.5,269.5616,249.6058,53.4266,51.29608
869619.6,269.4875,249.1313,53.41906,51.24287
869635.2,269.4504,248.4202,53.41529,51.16289
869653.1,269.3979,247.7749,53.40994,51.09008
869669.9,269.4859,247.0631,53.4189,51.00949
869687,269.5334,246.3937,53.42374,50.93345
869704.1,269.5928,245.6319,53.42978,50.84661
869718.2,269.6315,244.9328,53.43371,50.76662
869733.9,269.6984,244.184,53.44051,50.68066
869751.8,269.733,243.4644,53.44402,50.59774
869769.2,269.7017,242.715,53.44084,50.51108
869784.5,269.6461,241.9523,53.43519,50.42255
869802.9,269.5216,241.0754,53.42253,50.32035
869818.7,269.3222,240.1917,53.40224,50.21693
869835,269.0796,239.3003,53.37751,50.11214
869851,268.7727,238.3321,53.34621,49.9978
869867.5,268.3857,237.2344,53.30666,49.8675
869885.4,268.0381,236.2849,53.27108,49.75423
869901.5,267.5769,234.7672,53.22377,49.57207
869917.6,267.1068,233.2433,53.17545,49.38778
869933.4,266.6103,231.5379,53.12429,49.17989
869950.4,266.0624,229.9101,53.06769,48.97982
869967.8,265.5165,228.5034,53.01116,48.80563
869983.9,264.9848,226.9813,52.95594,48.61576
870000.3,264.4894,225.5031,52.90438,48.42999
870017.5,264.0652,224.1493,52.86012,48.25866
870033.1,263.7035,222.8449,52.82232,48.09249
870051.4,263.434,221.7542,52.79411,47.95271
870067.4,263.4032,220.8906,52.79088,47.8415
870083.9,263.4667,220.0219,52.79753,47.72916
870100.4,263.6526,219.1961,52.81699,47.6219
870116.6,264.1036,218.5312,52.86414,47.53521
870133.9,264.7685,217.8264,52.93344,47.44302
870156.9,265.5606,217.2934,53.01573,47.37308
870173.3,266.5859,217.07,53.12178,47.34372
870190.1,268.0356,217.1141,53.27082,47.34952
870200.9,270.2678,217.5211,53.49831,47.40298
870217.4,272.6819,217.8324,53.74162,47.44381
870233.6,275.6764,217.9161,54.03956,47.45477
870250.6,279.7014,217.7119,54.4334,47.42802
870268,283.5833,217.5173,54.80621,47.40248
870285.2,288.3297,217.2455,55.25288,47.36679
870300.8,293.3374,217.0369,55.7135,47.33937
870322.5,298.1351,216.6742,56.14483,47.2916
870337.2,303.8403,216.0052,56.64547,47.20328
870354.4,309.2618,215.4917,57.1092,47.13529
870369,314.1836,215.0329,57.52037,47.0744
870384.6,319.9859,214.3815,57.99348,46.98771
870402.2,324.9362,213.7394,58.38747,46.90197
870417.6,329.8999,212.9531,58.7739,46.79661
870434.6,334.9702,212.044,59.15993,46.67428
870451.4,340.2615,211.0801,59.5537,46.54396
870470.3,344.9386,210.2933,59.89427,46.43711
870485.3,349.6989,209.6977,60.23387,46.35595
870500.8,355.1279,209.337,60.61277,46.3067
870518.4,360.1118,208.9833,60.95295,46.2583
870534.6,365.1046,208.756,61.28659,46.22715
870551.8,370.4308,208.5682,61.63486,46.20139
870567.4,375.9055,208.3072,61.98485,46.16555
870585.8,380.8419,208.126,62.29369,46.14064
870602.2,385.7216,207.9311,62.59287,46.11382
870618.3,390.6482,207.6045,62.88894,46.06882
870637,395.7868,207.1998,63.1915,46.01296
870655.1,400.7003,206.7874,63.47502,45.95591
870672.6,404.8618,206.4114,63.71083,45.9038
870685.5,409.4969,206.1535,63.96892,45.868
870701.8,413.7723,205.8982,64.20284,45.83252
870717.8,418.0221,205.6969,64.43151,45.80452
870734.2,422.9226,205.4253,64.69054,45.76667
870754.7,426.2052,205.3447,64.86133,45.75544
870769.1,430.0466,205.4014,65.05847,45.76335
870785.6,434.424,205.4201,65.27962,45.76595
870804.1,437.4868,205.4434,65.43217,45.76919
870818,441.2478,205.5152,65.61711,45.7792
870835.3,445.0714,205.4503,65.80247,45.77016
870854.4,448.6196,205.3819,65.97211,45.76062
870871.1,452.4985,205.5373,66.15503,45.78228
870891.2,455.6756,205.572,66.30291,45.78711
870906.5,458.9782,205.3193,66.45481,45.75189
870921.9,462.2904,205.2006,66.60532,45.73532
870938.1,465.4195,205.1792,66.74584,45.73234
870954.4,469.2193,205.1433,66.91436,45.72733
870973.8,472.6728,204.9406,67.06553,45.69902
870989.5,475.5082,204.49,67.18825,45.63597
871006.9,478.5943,204.156,67.32042,45.58916
871024.1,481.1296,203.8837,67.42791,45.55093
871039.2,483.6385,203.7012,67.53334,45.52529
871055.5,486.2072,203.486,67.64032,45.495
871074.1,488.1508,203.2457,67.72062,45.46117
871091.1,489.8168,203.0534,67.78902,45.43404
871105.6,491.3377,202.8235,67.85112,45.40159
871122.3,492.304,202.6814,67.8904,45.38152
871138.6,493.1289,202.6452,67.92383,45.37641
871154,493.918,202.5912,67.95572,45.36877
871172.5,494.202,202.5409,67.96717,45.36165
871188.6,494.3635,202.4812,67.97368,45.35321
871204.9,494.1949,202.5183,67.96689,45.35846
871220.2,494.0726,202.3877,67.96196,45.33998
871237.4,493.8254,202.172,67.95198,45.30943
871253.6,493.4276,202.0228,67.93591,45.28828
871270.5,493.1046,201.8828,67.92284,45.26842
871287.8,492.7605,201.6618,67.90891,45.23705
871308.3,492.2503,201.4865,67.88822,45.21214
871320.6,491.7987,201.3717,67.86988,45.19582
871337.4,491.2554,201.2901,67.84777,45.1842
871353.8,490.623,201.1542,67.82198,45.16485
871375.1,489.9708,201.1919,67.79533,45.17022
871387.4,488.8855,201.1721,67.75084,45.1674
871406.3,487.8979,201.1589,67.71021,45.16552
871420.1,486.2919,201.1324,67.64383,45.16175
871437,484.7494,201.1081,67.57973,45.15829
871454.1,483.0576,201.107,67.50901,45.15813
871471.8,481.3085,201.0207,67.43546,45.14583
871488.4,479.8123,201.1478,67.37218,45.16394
871508.4,478.4344,201.2915,67.31361,45.1844
871523.9,477.1786,201.4571,67.25996,45.20796
871539.9,476.1561,201.7495,67.21612,45.2495
871557,475.2846,201.8527,67.17862,45.26415
871571.3,474.3959,201.9386,67.14026,45.27635
871588.6,473.7169,201.9648,67.11087,45.28006
871604.8,473.1137,201.921,67.08469,45.27384
871621.8,472.6062,201.8528,67.06263,45.26416
871637.7,472.2291,201.7404,67.04621,45.24822
871653.9,471.894,201.6357,67.0316,45.23334
871671.6,471.6558,201.431,67.02121,45.20425
871689.3,471.5616,201.3279,67.0171,45.18957
871705.3,471.472,201.1157,67.01318,45.15936
871722.2,471.5347,200.9345,67.01591,45.13354
871739.1,471.7459,200.8186,67.02514,45.11701
871755.1,471.9662,200.7746,67.03475,45.11073
871772.1,472.2735,200.6962,67.04815,45.09954
871789.9,472.6288,200.693,67.06361,45.09909
871806.3,473.0056,200.6655,67.07999,45.09517
871822.9,473.4673,200.6576,67.10004,45.09404
871839.7,473.8426,200.7139,67.11631,45.10208
871858.3,474.2951,200.6428,67.13589,45.09193
871875.7,474.7411,200.6553,67.15517,45.09371
871892.8,475.1308,200.625,67.17199,45.08938
871909,475.4666,200.5109,67.18646,45.07309
871925.7,475.8403,200.43,67.20255,45.06152
871941.8,476.2257,200.3728,67.21911,45.05336
871957.6,475.4203,200.4028,67.18446,45.05764
871972.3,475.4227,200.3898,67.18457,45.05578
871992.4,475.4398,200.3565,67.1853,45.05102
872009.3,475.4784,200.3099,67.18697,45.04436
872025.1,475.4426,200.26,67.18542,45.03722
872041.9,475.4769,200.2466,67.1869,45.03529
872058.8,475.4361,200.1753,67.18514,45.0251
872074.3,475.3768,200.2326,67.18259,45.0333
872091.4,475.3611,200.2299,67.18192,45.03291
872108.3,475.2787,200.2108,67.17836,45.03019
872124.8,475.184,200.0767,67.17428,45.01099
872141.3,475.161,200.0846,67.17329,45.01212
872157.8,475.0557,200.089,67.16875,45.01274
872173.4,474.9621,200.1142,67.16471,45.01636
872190.8,474.8086,200.1037,67.15809,45.01485
872207.3,474.6505,200.0994,67.15126,45.01424
872224.8,474.5052,200.0235,67.14498,45.00336
872240.9,474.3174,199.8951,67.13686,44.98497
872257.2,474.1454,199.7046,67.12943,44.95765
872273.7,474.0023,199.5633,67.12322,44.93737
872290.6,473.8063,199.5722,67.11474,44.93865
872308.1,473.6001,199.5453,67.1058,44.9348
872325.1,473.387,199.5864,67.09656,44.94069
872341.6,473.1286,199.5865,67.08534,44.94071
872357.8,472.9283,199.5201,67.07664,44.93117
872374,472.6087,199.6648,67.06274,44.95195
872393.7,472.3954,199.59,67.05346,44.9412
872408.6,472.1228,199.5298,67.04158,44.93257
872426.2,471.8763,199.3944,67.03083,44.91313
872441.8,471.6004,199.2601,67.01879,44.89382
872458.1,471.3976,199.0509,67.00993,44.86373
872476.6,471.1128,198.9004,66.99747,44.84206
872493.8,470.7217,198.685,66.98035,44.81101
872515.2,470.4758,198.452,66.96958,44.7774
872527.8,470.3094,198.2415,66.96228,44.747
872543.8,470.0385,198.0836,66.95039,44.72417
872560.2,469.744,198.0025,66.93745,44.71244
872577,469.4763,197.799,66.92567,44.68298
872596.8,469.2735,197.7693,66.91675,44.67868
872612.5,469.0311,197.6949,66.90607,44.66791
872631.1,468.8364,197.7219,66.89748,44.67183
872644,468.6107,197.6148,66.88753,44.6563
872661.8,468.347,197.6475,66.87589,44.66104
872677.8,468.0986,197.714,66.8649,44.67068
872695.9,467.8267,197.7189,66.85287,44.67139
872713.6,467.6277,197.7034,66.84406,44.66914
872727.9,467.3953,197.6782,66.83376,44.66549
872744.1,467.1279,197.6997,66.8219,44.6686
872760.6,467.173,197.6982,66.8239,44.66839
872777.4,466.9629,197.6578,66.81457,44.66254
872805.2,466.7386,197.6142,66.80461,44.65621
872816.1,466.5421,197.5786,66.79587,44.65105
872828.6,466.3524,197.5417,66.78743,44.64571
872846.5,466.155,197.4755,66.77864,44.6361
872861.3,465.9202,197.4687,66.76818,44.63511
872877.5,465.7395,197.4404,66.76012,44.63101
872894.8,465.5428,197.5213,66.75135,44.64274
872911.5,465.3935,197.5171,66.74468,44.64213
872928.4,465.2194,197.6877,66.7369,44.66687
872944.8,465.0764,197.741,66.73051,44.67458
872961,464.9374,197.8329,66.7243,44.6879
872978.6,464.7732,197.9843,66.71695,44.70981
872994.5,464.6182,198.045,66.71001,44.71859
873012,464.4699,198.0805,66.70336,44.72373
873029.2,464.3617,198.0642,66.69852,44.72137
873045.3,464.4076,198.0972,66.70057,44.72615
873064.3,464.336,198.2846,66.69736,44.75323
873079,464.3079,198.3793,66.69611,44.76691
873094.2,464.3006,198.6084,66.69578,44.79998
873112.8,464.337,198.8716,66.69741,44.83791
873128.6,464.3255,199.0501,66.69689,44.86361
873158.5,464.3151,199.2726,66.69643,44.89562
873175.1,464.2977,199.481,66.69565,44.92557
873190.5,464.271,199.5707,66.69445,44.93844
873204.8,464.2059,199.7186,66.69153,44.95966
873215,464.1427,199.8872,66.6887,44.98383
873227.5,464.0468,200.1422,66.68439,45.02036
873245.6,463.9046,200.3786,66.67801,45.05417
873262.3,463.653,200.7886,66.6667,45.11274
873278.4,463.351,201.2862,66.65313,45.18365
873295.1,462.917,202.0296,66.63358,45.28925
873313.2,462.4337,202.8851,66.61179,45.41029
873330.2,461.8575,204.2195,66.58575,45.59807
873345.9,461.0291,206.1474,66.54822,45.86715
873363.5,460.253,208.2115,66.51295,46.15239
873380.8,459.3602,210.7623,66.47226,46.50085
873394.6,458.1855,214.7026,66.41852,47.03048
873411.9,457.1388,218.8173,66.37044,47.57255
873428.6,456.006,224.0473,66.31819,48.24571
873446.1,454.9541,228.8174,66.26948,48.84461
873462.3,453.9022,233.428,66.22058,49.41019
873479.3,452.8197,237.1781,66.17006,49.8608
873495.2,451.7563,240.0556,66.12023,50.20096
873511.8,450.8548,242.7632,66.07784,50.51666
873528,450.0011,245.3069,66.03757,50.80946
873545.4,449.0691,248.131,65.99345,51.13028
873562.3,448.4391,250.5796,65.96354,51.4049
873578.1,447.9446,253.1209,65.94002,51.68646
873593.8,447.4219,255.7488,65.9151,51.97398
873610.6,447.0325,258.3947,65.89651,52.25978
873628.5,446.7541,260.877,65.88319,52.52461
873644.5,446.5695,263.5377,65.87437,52.80497
873661.4,446.5234,266.0419,65.87216,53.06557
873677.8,446.504,268.6398,65.87123,53.33263
873693.8,446.6528,271.7711,65.87835,53.65015
873711.8,446.7275,275.0126,65.88193,53.97387
873728.8,446.9137,277.967,65.89083,54.26461
873744.9,447.2132,281.4063,65.90514,54.59798
873762.7,447.4881,284.4126,65.91826,54.88497
873778.1,447.8379,287.358,65.93493,55.16224
873794.8,448.2433,290.864,65.95423,55.48733
873815.3,448.6818,294.1227,65.97507,55.78475
873831.9,449.0188,297.1389,65.99106,56.05606
873849.5,449.5223,300.6292,66.01492,56.36531
873871.1,449.7485,302.3453,66.02562,56.51555
873880.9,450.1265,304.6139,66.04349,56.71235
873899.4,450.4093,306.442,66.05684,56.86944
873915.5,450.5992,308.0756,66.0658,57.00872
873932.7,450.8221,309.357,66.0763,57.11724
873955.8,450.9824,310.2586,66.08385,57.19322
873968.6,451.108,310.9975,66.08976,57.25525
873983.9,451.1894,311.8485,66.09359,57.32644
873998.6,451.2447,312.6328,66.09619,57.39181
874013.6,451.275,313.5923,66.09762,57.47145
874034.2,451.2166,314.405,66.09487,57.53865
874050.8,451.1673,315.096,66.09255,57.5956
874067.3,451.132,315.8702,66.0909,57.65918
874083.7,451.0255,316.4235,66.08588,57.70448
874097.6,450.9171,317.0173,66.08077,57.75298
874114.7,450.8371,317.5538,66.07701,57.79668
874132.8,450.7154,317.9742,66.07127,57.83085
874150.2,450.6045,318.3177,66.06604,57.85873
874166.4,450.5269,318.618,66.06239,57.88306
874182.9,450.5037,318.762,66.06129,57.89471
874198.6,450.4478,318.9471,66.05865,57.90969
874215.9,450.3589,318.9158,66.05446,57.90716
874232.4,450.308,318.7685,66.05206,57.89524
874250,450.2978,318.3782,66.05157,57.86363
874267.3,450.2671,318.0481,66.05013,57.83685
874283.9,450.1199,317.4666,66.04317,57.78958
874303.1,449.817,316.6624,66.02886,57.724
874316.7,449.5649,316.0735,66.01693,57.67584
874332.2,449.2092,315.5493,66.00008,57.63284
874357.3,448.8606,315.2584,65.98355,57.60895
874368.2,448.5625,315.011,65.96941,57.5886
874394.1,448.2005,314.6942,65.95219,57.56251
874413.4,447.9372,314.4445,65.93966,57.54192
874427.1,447.7646,314.2261,65.93143,57.52388
874437,447.663,314.0355,65.9266,57.50814
874448.4,447.5612,313.7874,65.92175,57.48761
874465.4,447.4699,313.4632,65.91739,57.46076
874482.9,447.4123,313.1446,65.91464,57.43433
874500.1,447.3878,312.9312,65.91348,57.41661
874515.8,447.3869,312.7389,65.91343,57.40063
874531.9,447.3585,312.4207,65.91207,57.37416
874548.9,447.3375,312.1014,65.91107,57.34755
874565.4,447.2294,311.7637,65.90591,57.31936
874581.8,447.0635,311.4817,65.89799,57.2958
874598.9,447.0903,311.6695,65.89927,57.31149
874615.7,446.8077,311.5493,65.88577,57.30145
874633.8,446.5193,311.6657,65.87196,57.31117
874651.2,446.2116,311.8667,65.85722,57.32796
