Time Stamp(ms),Intersection,,Angle,
,x,y,x,y
1626645,307.5378,251.3205,56.96299,51.48735
1626670,308.1373,251.417,57.01395,51.49807
1626694,308.8741,251.2716,57.07641,51.48191
1626718,309.6375,251.1754,57.14091,51.47123
1626742,310.3821,251.1867,57.2036,51.47247
1626768,311.0565,251.1933,57.2602,51.47321
1626789,311.4137,250.9739,57.2901,51.44881
1626814,311.5146,250.5901,57.29854,51.40607
1626837,311.4041,249.9942,57.28931,51.33955
1626864,311.1132,249.4536,57.26495,51.27902
1626891,310.9451,249.4314,57.25086,51.27654
1626912,310.757,249.786,57.23508,51.31626
1626937,310.7098,250.2964,57.23112,51.37331
1626963,310.7928,250.821,57.23809,51.43179
1626989,310.7703,251.2691,57.2362,51.48163
1627014,310.7223,251.7283,57.23217,51.5326
1627038,310.5494,252.2417,57.21766,51.58944
1627063,310.34,252.6853,57.20007,51.63844
1627088,310.1201,253.2077,57.18156,51.69601
1627111,310.0103,253.7487,57.17233,51.75549
1627134,309.9123,254.4914,57.16407,51.83686
1627159,309.7485,255.4254,57.15027,51.93879
1627183,309.4561,256.7922,57.12561,52.08712
1627209,309.0298,258.6097,57.08959,52.28284
1627233,308.5442,260.8703,57.04848,52.5239
1627256,307.9061,263.7487,56.99432,52.82704
1627283,307.302,266.8159,56.94289,53.14549
1627308,306.9116,269.1139,56.90958,53.38102
1627332,306.6739,271.041,56.88927,53.57654
1627356,306.5806,272.6799,56.8813,53.74142
1627382,306.5731,274.238,56.88066,53.89697
1627409,306.5392,275.526,56.87776,54.02469
1627434,306.4948,277.3503,56.87396,54.20426
1627455,306.4333,279.8922,56.86869,54.45188
1627479,306.3359,283.1892,56.86036,54.76867
1627504,306.3877,287.9142,56.86479,55.21417
1627530,306.7441,293.1692,56.89528,55.6982
1627553,307.0605,297.7855,56.92229,56.11373
1627577,307.178,301.1201,56.93232,56.40841
1627603,307.107,303.9046,56.92626,56.65104
1627627,306.8303,305.7431,56.90264,56.80954
1627652,306.417,307.4356,56.8673,56.95428
1627676,306.0673,308.921,56.83735,57.08038
1627702,305.7283,310.149,56.80827,57.184
1627726,305.5624,311.2719,56.79401,57.27824
1627751,305.5416,312.7563,56.79223,57.40208
1627775,305.6017,314.4015,56.79739,57.53836
1627799,305.632,315.8335,56.8,57.65616
1627825,305.6384,317.137,56.80055,57.76273
1627850,305.5615,318.2213,56.79394,57.8509
1627872,305.5852,318.8859,56.79598,57.90474
1627898,305.5342,319.4376,56.7916,57.9493
1627925,305.4395,319.8503,56.78345,57.98257
1627947,305.3433,320.1253,56.77518,58.0047
1627973,305.191,320.3647,56.76208,58.02394
1627993,305.05,320.4986,56.74994,58.03469
1628018,304.863,320.5903,56.73383,58.04205
1628043,304.6296,320.7544,56.7137,58.05522
1628069,304.3055,321.0142,56.68571,58.07605
1628092,304.094,321.1523,56.66742,58.08711
1628117,303.9171,321.1761,56.65211,58.08901
1628142,303.7903,320.9702,56.64114,58.07252
1628167,303.6603,320.7158,56.62988,58.05213
1628190,303.666,320.4247,56.63036,58.02876
1628224,303.6397,320.2083,56.62809,58.01138
1628241,303.6466,320.0216,56.62868,57.99636
1628265,303.6323,319.7544,56.62745,57.97484
1628290,303.6624,319.7106,56.63005,57.97131
1628312,303.6496,319.6227,56.62894,57.96423
1628337,303.6969,319.6047,56.63304,57.96278
1628362,303.6614,319.6047,56.62997,57.96278
1628390,303.5572,319.6853,56.62093,57.96928
1628410,303.4423,319.5635,56.61097,57.95946
1628437,303.3015,319.2473,56.59874,57.93394
1628460,303.2615,318.9841,56.59528,57.91268
1628484,303.1956,318.7944,56.58955,57.89734
1628511,303.0901,318.6544,56.58038,57.886
1628534,303.2366,319.2594,56.59311,57.93492
1628558,303.272,319.578,56.59619,57.96062
1628583,303.4996,319.9432,56.61594,57.99004
1628612,303.6324,320.1151,56.62746,58.00387
1628635,303.8571,320.4175,56.64692,58.02818
1628667,304.2528,320.4895,56.68116,58.03396
1628691,304.4155,320.7955,56.69521,58.05852
1628710,304.6172,321.1803,56.71262,58.08934
1628731,304.7967,321.5499,56.72811,58.1189
1628755,304.8785,321.8643,56.73516,58.14402
1628778,304.8603,321.8568,56.73359,58.14342
1628803,304.8437,321.8878,56.73216,58.14589
1628835,304.7105,322.0461,56.72068,58.15851
1628856,304.4402,322.3362,56.69735,58.18164
1628880,304.0345,322.6464,56.66227,58.20631
1628904,303.5746,322.7106,56.62245,58.21143
1628927,303.2127,322.5959,56.59104,58.2023
1628953,302.8162,322.2901,56.55657,58.17796
1628977,302.5545,322.2778,56.53379,58.17698
1629005,302.3964,322.2593,56.52,58.17551
1629029,302.4728,321.626,56.52666,58.12498
1629053,302.5214,321.1851,56.5309,58.08973
1629076,302.5781,321.049,56.53584,58.07883
1629098,302.8279,320.5531,56.55759,58.03907
1629137,302.9806,320.3867,56.57087,58.0257
1629149,303.5385,319.5537,56.61931,57.95866
1629173,304.2983,319.0345,56.68509,57.91676
1629197,305.0569,318.7049,56.75053,57.89009
1629222,305.979,318.6925,56.82978,57.88909
1629248,306.6399,317.8381,56.88637,57.81979
1629273,307.1321,317.6179,56.92841,57.8019
1629297,307.5544,317.0901,56.9644,57.75891
1629322,307.8244,316.9761,56.98737,57.74961
1629344,308.0682,316.9051,57.00809,57.74382
1629371,308.3385,317.0706,57.03103,57.75732
1629396,308.6094,317.4753,57.054,57.79029
1629420,309.046,317.8507,57.09096,57.82082
1629446,309.4259,318.3302,57.12306,57.85974
1629468,309.6532,319.1911,57.14223,57.92941
1629493,309.979,319.5484,57.16969,57.95824
1629516,310.2945,319.4179,57.19624,57.94771
1629544,310.7499,319.4277,57.23449,57.94851
1629566,311.4782,318.9966,57.2955,57.91368
1629593,312.2948,318.6826,57.36367,57.88829
1629615,313.2523,318.4016,57.44328,57.86553
1629640,314.2711,318.2097,57.5276,57.84997
1629665,315.2156,318.1988,57.60543,57.84908
1629690,316.3406,318.0864,57.6977,57.83996
1629714,317.0562,318.1984,57.75615,57.84905
1629738,317.8565,318.4381,57.82129,57.86849
1629766,318.3241,318.8276,57.85925,57.90002
1629788,318.5374,318.3501,57.87653,57.86135
1629814,318.5084,317.9708,57.87418,57.83057
1629836,318.5347,317.1147,57.87631,57.76092
1629863,318.6702,316.4249,57.88728,57.7046
1629885,318.885,315.924,57.90467,57.66359
1629911,319.5291,315.4166,57.95668,57.62195
1629934,320.1561,315.0958,58.00718,57.59558
1629959,321.175,314.8352,58.08892,57.57412
1629982,322.0477,314.8232,58.15864,57.57313
1630008,323.1377,314.9154,58.24535,57.58073
1630031,324.0279,314.9237,58.31584,57.58141
1630056,324.5786,315.0228,58.35931,57.58957
1630080,324.7343,314.9436,58.37158,57.58305
1630107,324.6125,314.6339,58.36198,57.55753
1630132,324.5294,314.4328,58.35543,57.54095
1630155,324.2231,314.0416,58.33126,57.50864
1630179,323.727,314.0807,58.29204,57.51188
1630204,323.2571,314.0868,58.25481,57.51237
1630231,322.691,314.2164,58.20987,57.52308
1630253,322.4875,314.3847,58.19368,57.53698
1630278,322.3537,314.1961,58.18302,57.52141
1630304,322.3086,314.4387,58.17943,57.54143
1630330,322.4743,314.6332,58.19263,57.55748
1630352,322.5014,314.8374,58.19479,57.57431
1630378,322.6524,315.0378,58.20679,57.5908
1630402,322.8155,315.1362,58.21976,57.5989
1630429,322.9501,315.1317,58.23045,57.59853
1630450,323.0194,315.2357,58.23596,57.60708
1630476,323.1018,315.1893,58.2425,57.60327
1630502,322.9889,315.0481,58.23353,57.59165
1630527,323.0618,314.9549,58.23932,57.58398
1630551,323.073,314.923,58.24021,57.58135
1630583,323.1293,314.9047,58.24467,57.57985
1630601,323.1761,315.0053,58.24839,57.58813
1630621,323.2072,315.0232,58.25086,57.5896
1630648,323.2462,315.0903,58.25395,57.59513
1630674,323.3454,315.1453,58.26181,57.59965
1630697,323.3751,315.3916,58.26417,57.6199
1630725,323.4586,315.4442,58.27079,57.62422
1630748,323.5137,315.5856,58.27515,57.63583
1630776,323.5349,315.5529,58.27684,57.63314
1630795,323.5073,315.5532,58.27465,57.63317
1630820,323.4527,315.6876,58.27032,57.6442
1630844,323.3421,315.7471,58.26155,57.64908
1630868,323.1364,315.7546,58.24524,57.6497
1630892,322.9413,315.8745,58.22976,57.65953
1630917,322.6772,315.8586,58.20876,57.65822
1630943,322.3826,315.8961,58.18533,57.6613
1630967,322.1307,315.9207,58.16526,57.66331
1630990,321.8351,315.9011,58.14169,57.66171
1631018,321.6555,315.9282,58.12735,57.66393
1631039,321.4249,315.9771,58.10891,57.66794
1631067,321.3515,315.8885,58.10305,57.66068
1631090,321.1608,315.8281,58.08778,57.65573
1631120,320.9703,315.7354,58.07253,57.64812
1631139,320.6975,315.7177,58.05066,57.64667
1631167,320.4946,315.5039,58.03437,57.62912
1631192,320.2673,315.5307,58.01612,57.63132
1631216,320.1161,315.5385,58.00396,57.63196
1631238,319.9823,315.5373,57.99319,57.63186
1631265,319.8461,315.5767,57.98223,57.63509
1631286,319.5956,315.607,57.96204,57.63759
1631313,319.2969,315.6584,57.93795,57.64181
1631336,319.0127,315.6002,57.91499,57.63703
1631361,318.6873,315.6338,57.88867,57.63979
1631387,318.4376,315.6146,57.86845,57.63821
1631412,318.0343,315.6126,57.83574,57.63805
1631438,317.714,315.4904,57.80971,57.62801
1631459,317.1814,315.2699,57.76635,57.60989
1631484,316.5815,315.024,57.71739,57.58967
1631509,315.9362,314.803,57.66459,57.57148
1631532,315.0725,314.5775,57.59366,57.55289
1631556,314.1183,314.366,57.51498,57.53543
1631583,313.0023,314.0857,57.42253,57.51228
1631607,311.8445,313.6327,57.3261,57.4748
1631632,310.5598,313.0317,57.21854,57.42497
1631655,309.3706,312.5575,57.11839,57.38554
1631680,307.8871,312.0218,56.99269,57.34091
1631704,306.484,311.517,56.87304,57.29874
1631731,304.8102,310.907,56.72928,57.24766
1631755,303.5175,310.4559,56.61749,57.2098
1631779,301.7111,309.9293,56.46017,57.1655
1631804,300.0185,309.5229,56.31157,57.13125
1631829,298.5084,309.0054,56.17799,57.08753
1631852,296.9033,308.3965,56.03501,57.03595
1631874,295.3372,307.7495,55.89445,56.981
1631899,293.7487,307.2494,55.75085,56.93841
1631924,292.2311,306.7267,55.61266,56.8938
1631952,290.7045,306.2722,55.47266,56.8549
1631973,289.2553,305.7289,55.33883,56.80832
1631998,287.7535,305.198,55.19918,56.76268
1632021,286.3166,304.701,55.06464,56.71986
1632047,284.7143,304.0369,54.91355,56.66249
1632073,283.5528,303.6891,54.80331,56.63237
1632096,282.0552,303.3701,54.66027,56.6047
1632125,280.9074,303.1371,54.54995,56.58447
1632147,279.4975,302.9896,54.41363,56.57165
1632170,278.3042,302.8097,54.29753,56.556
1632194,276.9167,302.6742,54.16172,56.54421
1632221,275.6922,302.4353,54.04111,56.5234
1632247,274.507,302.0929,53.92371,56.49353
1632271,273.2825,301.718,53.80172,56.46077
1632294,272.2692,301.387,53.70022,56.4318
1632320,271.2268,301.0425,53.5953,56.4016
1632345,270.442,300.9221,53.51596,56.39104
1632368,269.7225,300.6945,53.44296,56.37105
1632391,269.2602,300.5074,53.39592,56.35461
1632417,268.8815,300.4174,53.35732,56.34669
1632441,268.7751,300.2106,53.34645,56.32849
1632467,268.8013,300.1022,53.34912,56.31894
1632489,268.9274,299.9931,53.362,56.30932
1632515,269.1224,299.9048,53.38189,56.30154
1632539,269.287,299.8882,53.39866,56.30007
1632567,269.3697,299.7455,53.40707,56.28749
1632591,269.3818,299.7849,53.4083,56.29096
1632613,269.3038,299.8295,53.40037,56.2949
1632638,269.1253,299.8999,53.38218,56.30111
1632662,268.843,299.9208,53.35339,56.30295
1632689,268.5624,299.9406,53.32473,56.3047
1632713,268.2408,300.045,53.29184,56.3139
1632736,267.9595,300.0509,53.26302,56.31441
1632758,267.7664,300.1953,53.24323,56.32714
1632787,267.757,300.0749,53.24225,56.31653
1632814,267.7403,300.025,53.24055,56.31213
1632834,267.7787,299.8748,53.24448,56.29889
1632857,267.7973,299.823,53.2464,56.29433
1632883,267.8088,299.7607,53.24757,56.28883
1632908,267.8369,299.6995,53.25045,56.28343
1632933,267.7781,299.7684,53.24442,56.28951
1632957,267.7111,299.7473,53.23755,56.28764
1632982,267.4819,299.7233,53.21402,56.28552
1633006,267.2744,299.59,53.19269,56.27376
1633029,266.9923,299.3499,53.16366,56.25254
1633055,266.7059,299.1859,53.13414,56.23803
1633079,266.4174,299.0477,53.10438,56.2258
1633104,265.9832,298.8387,53.05951,56.20729
1633133,265.589,298.7831,53.01867,56.20237
1633157,265.1252,298.7498,52.97054,56.19941
1633178,264.5425,298.8323,52.90991,56.20672
1633206,263.8214,298.8881,52.83464,56.21167
1633228,263.0552,298.9115,52.75439,56.21375
1633254,262.1791,299.0926,52.66227,56.22977
1633277,261.2375,299.0633,52.56281,56.22718
1633302,260.1665,299.0577,52.44913,56.22669
1633327,259.1587,298.9788,52.34163,56.2197
1633354,258.0366,298.8549,52.22131,56.20873
1633378,257.1702,298.7848,52.12797,56.20251
1633401,256.2293,298.7491,52.02616,56.19935
1633426,255.7053,298.7852,51.96924,56.20255
1633450,254.9545,298.772,51.88746,56.20138
1633475,254.2609,298.8303,51.81163,56.20655
1633500,253.4606,298.9152,51.72383,56.21407
1633528,252.9138,298.9235,51.66364,56.21481
1633548,252.3022,298.9859,51.59613,56.22033
1633576,251.5889,299.0414,51.51714,56.22525
1633599,250.8991,299.0139,51.44049,56.22281
1633624,250.0325,299.0326,51.34383,56.22447
1633645,249.048,299.0347,51.23351,56.22465
1633673,247.929,299.045,51.10749,56.22556
1633695,246.6979,299.1259,50.96803,56.23273
1633719,245.3454,299.3126,50.81386,56.24924
1633742,243.8269,299.5728,50.63954,56.27224
1633769,242.2542,299.7995,50.45763,56.29225
1633793,240.7731,299.9511,50.28503,56.30562
1633817,238.8728,300.0318,50.06171,56.31274
1633844,237.4119,300.0087,49.88862,56.3107
1633869,235.5164,299.9262,49.66217,56.30342
1633892,234.0562,299.8055,49.48626,56.29277
1633914,232.4043,299.7299,49.28572,56.28611
1633942,230.851,299.7167,49.09566,56.28495
1633966,229.638,299.5525,48.94623,56.27044
1633991,228.573,299.4684,48.81427,56.26302
1634014,227.8818,299.4171,48.72826,56.25848
1634040,227.1975,299.4438,48.64281,56.26084
1634063,226.7427,299.4554,48.58586,56.26187
1634091,226.4024,299.4864,48.54317,56.26461
1634112,226.1074,299.3807,48.5061,56.25526
1634143,226.0117,299.3185,48.49407,56.24977
1634160,225.9851,299.2665,48.49072,56.24517
1634188,226.053,299.2139,48.49926,56.24052
1634210,226.2332,299.0156,48.52192,56.22296
1634236,226.4116,298.8399,48.54432,56.2074
1634260,226.5344,298.7024,48.55975,56.19521
1634283,226.6252,298.4258,48.57113,56.17066
1634311,226.6373,298.2587,48.57265,56.15582
1634335,226.6085,298.1555,48.56904,56.14666
1634359,226.5192,298.0215,48.55783,56.13473
1634381,226.2839,297.9044,48.52829,56.12432
1634408,225.9519,297.6889,48.48654,56.10513
1634432,225.575,297.5246,48.43906,56.09048
1634458,224.9586,297.3301,48.36123,56.07313
1634483,224.3097,297.1675,48.27902,56.05862
1634508,223.5866,296.9492,48.18711,56.03911
1634533,222.9727,296.745,48.10883,56.02085
1634559,222.264,296.7201,48.01815,56.01861
1634579,221.6884,296.5606,47.94426,56.00434
1634604,221.1114,296.3997,47.86998,55.98992
1634629,220.7773,296.1496,47.82687,55.96749
1634655,220.6958,295.83,47.81635,55.93879
1634679,220.7841,295.5424,47.82775,55.91293
1634705,221.2568,295.278,47.88873,55.88913
1634726,221.9067,295.0303,47.9723,55.86679
1634751,222.7039,294.9153,48.07446,55.85642
1634776,223.6896,294.7593,48.20023,55.84233
1634800,224.7743,294.7475,48.33791,55.84127
1634826,225.9907,294.6988,48.49142,55.83686
1634850,227.0414,294.7581,48.62328,55.84222
1634879,228.3374,294.6344,48.78499,55.83105
1634900,229.5309,294.5921,48.93298,55.82722
1634926,230.8402,294.4398,49.09434,55.81345
1634952,232.1142,294.2907,49.25034,55.79997
1634973,233.4209,294.0758,49.40932,55.78051
1634996,234.6953,294.0051,49.5634,55.7741
1635022,235.6111,293.9878,49.67353,55.77253
1635047,236.785,293.8691,49.81396,55.76177
1635074,238.1886,293.7244,49.9808,55.74865
1635097,239.6841,293.5632,50.15731,55.73401
1635121,241.4167,293.422,50.36018,55.72118
1635146,243.4514,293.1521,50.59624,55.69664
1635171,245.5268,292.9125,50.8346,55.67483
1635194,247.8719,292.687,51.10104,55.65428
1635218,250.0872,292.3572,51.34994,55.62418
1635243,252.4549,292.0773,51.61301,55.59859
1635269,254.7307,291.7051,51.86301,55.56453
1635295,256.8017,291.4779,52.08815,55.54371
1635316,258.8326,291.3093,52.30672,55.52824
1635343,260.7949,291.2252,52.5159,55.52052
1635366,262.5441,291.1051,52.7007,55.50949
1635391,264.4005,290.9036,52.8951,55.49097
1635417,265.8231,290.7249,53.04292,55.47454
1635439,267.2979,290.4875,53.19511,55.45267
1635464,268.6113,290.1928,53.32972,55.42551
1635489,269.9539,289.8942,53.46646,55.39794
1635517,271.1393,289.4646,53.58646,55.35821
1635539,272.3173,289.1846,53.70505,55.33228
1635569,273.4172,288.9586,53.81517,55.31132
1635590,274.6744,288.8109,53.94033,55.2976
1635614,275.8141,288.6556,54.05315,55.28318
1635638,276.9756,288.4251,54.16751,55.26175
1635665,278.0553,288.228,54.27324,55.24341
1635687,279.1874,288.0771,54.38352,55.22935
1635714,280.4066,287.6823,54.50163,55.19253
1635739,281.5994,287.3943,54.61653,55.16563
1635767,282.7455,287.1458,54.72632,55.1424
1635787,283.8124,286.8298,54.828,55.1128
1635814,284.9247,286.6132,54.93345,55.09248
1635836,285.7615,286.4652,55.01243,55.0786
1635862,286.5885,286.2861,55.09017,55.06178
1635885,287.3146,286.1354,55.15818,55.04762
1635913,287.8248,286.0711,55.20583,55.04157
1635936,288.1935,285.9423,55.2402,55.02945
1635962,288.3971,285.8465,55.25914,55.02043
1635984,288.5019,285.7196,55.26889,55.00848
1636013,288.5455,285.5338,55.27295,54.99097
1636036,288.4154,285.4651,55.26085,54.98449
1636063,288.2996,285.4378,55.25008,54.98191
1636085,288.0814,285.5122,55.22976,54.98893
1636107,287.7983,285.5199,55.20337,54.98965
1636132,287.5557,285.4918,55.18072,54.98701
1636158,287.2919,285.3422,55.15606,54.9729
1636183,287.0702,285.2331,55.13532,54.96259
1636207,286.9886,285.0988,55.12768,54.94991
1636233,286.9474,284.9117,55.12382,54.93222
1636253,286.9043,284.7592,55.11978,54.9178
1636278,286.8277,284.7321,55.1126,54.91523
1636303,286.7647,284.8023,55.10669,54.92188
1636329,286.7137,284.8614,55.10191,54.92747
1636352,286.6384,284.912,55.09485,54.93225
1636378,286.5262,285.0545,55.08432,54.94572
1636404,286.3923,285.0883,55.07175,54.94892
1636428,286.2507,285.0399,55.05846,54.94435
1636449,286.2415,284.9852,55.05758,54.93917
1636475,286.2167,284.9246,55.05526,54.93344
1636503,286.2119,284.8448,55.05481,54.9259
1636528,286.2379,284.8549,55.05725,54.92685
1636550,286.2246,284.8456,55.056,54.92597
1636583,286.1699,284.8239,55.05086,54.92392
1636600,286.115,284.8548,55.0457,54.92684
1636627,286.0369,284.9471,55.03835,54.93558
1636649,285.9112,284.9237,55.02652,54.93336
