Time Stamp(ms),Intersection,,Angle,
,x,y,x,y
1389045,315.0643,247.2758,57.59298,51.03361
1389064,315.6542,247.2496,57.64146,51.03063
1389090,317.0083,247.5495,57.75224,51.06459
1389129,317.5436,247.666,57.79585,51.07777
1389148,317.973,248.008,57.83076,51.11641
1389169,318.1667,248.4119,57.84648,51.16196
1389189,318.276,248.8176,57.85534,51.20762
1389205,318.2132,249.2241,57.85025,51.25328
1389214,318.0741,249.531,57.83896,51.28769
1389225,317.9323,249.8362,57.82745,51.32187
1389240,317.6314,250.2005,57.80299,51.36259
1389251,317.2013,250.5959,57.76797,51.40671
1389268,316.6602,250.9749,57.72383,51.44892
1389280,315.8497,251.3275,57.65749,51.48813
1389302,315.1577,251.5997,57.60067,51.51834
1389317,314.4236,251.833,57.54019,51.5442
1389331,313.7512,252.024,57.48462,51.56536
1389346,313.0667,251.9473,57.42787,51.55687
1389364,312.4158,251.9414,57.37375,51.55621
1389381,311.8893,252.0859,57.32985,51.5722
1389396,311.4316,252.0826,57.2916,51.57184
1389414,311.1109,252.1462,57.26476,51.57888
1389432,310.898,252.2177,57.24691,51.58678
1389448,310.7274,252.2393,57.2326,51.58917
1389465,310.6795,252.3537,57.22858,51.60182
1389479,310.7282,252.4864,57.23267,51.61649
1389494,310.7212,252.6846,57.23208,51.63836
1389514,310.795,252.975,57.23827,51.67039
1389533,310.8063,253.1398,57.23922,51.68854
1389548,310.8508,253.3704,57.24296,51.71392
1389564,310.8813,253.6398,57.24551,51.74352
1389579,310.8914,253.9073,57.24636,51.77288
1389595,310.8539,254.2159,57.24321,51.80671
1389612,310.8157,254.5508,57.24001,51.84336
1389631,310.6683,254.9081,57.22764,51.88239
1389647,310.4447,255.1738,57.20886,51.91138
1389664,310.2169,255.3181,57.18971,51.92711
1389680,309.8907,255.4413,57.16225,51.94052
1389695,309.4748,255.5518,57.12718,51.95255
1389713,309.0551,255.6878,57.09173,51.96734
1389729,308.6065,255.7784,57.05376,51.97719
1389745,308.1329,255.7938,57.01358,51.97887
1389763,307.63,255.8432,56.97083,51.98424
1389781,307.1732,255.8712,56.93191,51.98728
1389795,306.6984,255.8159,56.89137,51.98127
1389814,306.2957,255.8446,56.85692,51.98439
1389830,305.9439,255.8335,56.82677,51.98318
1389846,305.6422,255.8373,56.80088,51.98359
1389865,305.3576,255.8568,56.77642,51.98571
1389879,305.0443,255.9024,56.74944,51.99067
1389895,304.8091,255.8852,56.72918,51.9888
1389912,304.5599,255.9072,56.70769,51.99119
1389929,304.296,255.9398,56.68489,51.99472
1389946,304.0056,256.0345,56.65978,52.00502
1389962,303.6181,256.1589,56.62621,52.01852
1389979,303.2556,256.3239,56.59476,52.0364
1389994,302.6439,256.5661,56.54157,52.06265
1390012,301.8551,256.8256,56.47276,52.09073
1390030,301.067,257.0672,56.40376,52.11685
1390047,300.0868,257.3022,56.31758,52.14222
1390063,298.8271,257.5233,56.20626,52.16606
1390079,297.5645,257.7655,56.09404,52.19215
1390096,296.1533,258.0423,55.96782,52.22192
1390113,294.3516,258.3153,55.80548,52.25126
1390131,292.8083,258.6116,55.66534,52.28305
1390146,290.8069,258.9757,55.48208,52.32205
1390163,289.0002,259.2521,55.31517,52.35161
1390179,287.0694,259.484,55.13524,52.37639
1390196,284.8039,259.8054,54.92203,52.41067
1390215,282.6129,260.159,54.71365,52.44833
1390231,280.5139,260.5982,54.512,52.49502
1390247,278.3796,260.9452,54.30489,52.53184
1390263,276.1288,261.3274,54.0842,52.57232
1390279,273.8848,261.6484,53.8618,52.60627
1390295,271.4541,262.0258,53.61822,52.6461
1390314,269.3435,262.2682,53.4044,52.67165
1390329,266.869,262.4052,53.15096,52.68607
1390349,264.7813,262.4847,52.93477,52.69445
1390361,262.3548,262.661,52.68077,52.71299
1390380,260.1336,262.6494,52.44563,52.71177
1390397,257.906,262.6359,52.20727,52.71034
1390412,255.4663,262.5347,51.94324,52.69971
1390428,252.6664,262.243,51.63636,52.66899
1390447,249.9632,261.9953,51.33607,52.64288
1390463,247.0284,261.7189,51.00555,52.61371
1390480,244.3131,261.6285,50.6955,52.60416
1390497,241.5343,261.5444,50.37389,52.59527
1390514,238.3845,261.3837,50.00399,52.57827
1390532,235.7565,261.2588,49.69096,52.56506
1390547,232.9148,261.0438,49.34787,52.54229
1390564,229.9444,260.8993,48.98405,52.52698
1390582,227.3301,260.8329,48.6594,52.51994
1390598,224.6047,260.6701,48.31643,52.50266
1390615,221.7012,260.4078,47.9459,52.47479
1390637,219.1557,260.226,47.61663,52.45546
1390650,217.0726,259.9918,47.34406,52.43053
1390665,214.8108,259.7749,47.04487,52.40742
1390681,212.6403,259.4197,46.75458,52.36952
1390697,210.8546,259.17,46.51337,52.34284
1390714,208.7661,258.9001,46.22854,52.31395
1390731,206.9672,258.598,45.9808,52.28159
1390748,205.3457,258.2842,45.75558,52.24792
1390765,203.6302,257.9572,45.5153,52.21278
1390782,202.0126,257.7184,45.28683,52.18708
1390798,200.4646,257.5129,45.06647,52.16494
1390813,198.9715,257.3347,44.85229,52.14572
1390833,197.6304,257.1796,44.65856,52.12899
1390849,196.2753,257.0709,44.46148,52.11725
1390866,194.9783,256.9966,44.27159,52.10922
1390885,193.8668,257.144,44.10787,52.12514
1390899,192.695,257.1554,43.9343,52.12637
1390914,191.4688,257.4125,43.75156,52.15411
1390931,190.4661,257.6582,43.6013,52.1806
1390947,189.4423,257.8654,43.4471,52.2029
1390963,188.3858,258.0475,43.28715,52.22249
1390985,187.5275,258.1906,43.15659,52.23786
1390997,186.7613,258.158,43.03955,52.23436
1391013,186.0636,258.1537,42.9326,52.2339
1391031,185.5968,258.106,42.86082,52.22878
1391048,185.153,258.0193,42.79244,52.21946
1391064,184.8496,257.9243,42.7456,52.20924
1391081,184.6905,257.6598,42.721,52.18077
1391097,184.4132,257.5129,42.6781,52.16494
1391115,184.2265,257.4435,42.64918,52.15746
1391132,184.2291,257.4629,42.64958,52.15955
1391149,184.2022,257.4412,42.64541,52.15721
1391165,184.2459,257.4266,42.65219,52.15564
1391182,184.2331,257.411,42.6502,52.15396
1391199,184.3328,257.4954,42.66565,52.16306
1391215,184.4903,257.4788,42.69003,52.16126
1391234,184.5675,257.4246,42.70198,52.15542
1391247,184.6683,257.4183,42.71758,52.15474
1391267,184.8079,257.4552,42.73915,52.15872
1391281,184.9598,257.4623,42.76262,52.15948
1391299,185.1157,257.4888,42.78668,52.16234
1391315,185.3794,257.4028,42.82734,52.15306
1391332,185.6304,257.2743,42.86599,52.1392
1391349,185.82,257.1286,42.89516,52.12348
1391367,186.0192,256.9608,42.92577,52.10535
1391386,186.1917,256.9095,42.95226,52.0998
1391400,186.3967,256.8452,42.9837,52.09285
1391416,186.6108,256.7444,43.01651,52.08195
1391431,186.8648,256.7032,43.05539,52.07749
1391450,186.3703,256.5643,42.97965,52.06245
1391464,186.468,256.4055,42.99463,52.04525
1391482,186.5438,256.4588,43.00625,52.05103
1391501,186.6701,256.3521,43.02559,52.03946
1391517,186.7567,256.2658,43.03885,52.03011
1391531,186.8838,256.1196,43.05829,52.01425
1391548,187.0368,255.9963,43.08168,52.00087
1391564,187.2428,256.0425,43.11315,52.00589
1391581,187.3771,255.9793,43.13365,51.99902
1391598,187.5208,256.0934,43.15556,52.01141
1391614,187.6715,255.9395,43.17853,51.9947
1391630,187.8007,255.7934,43.19821,51.97882
1391647,187.9694,255.5669,43.22387,51.95419
1391665,188.0524,255.3503,43.23649,51.93061
1391681,188.182,255.0644,43.2562,51.89945
1391697,188.3018,254.8713,43.27439,51.87838
1391714,188.4535,254.6668,43.29742,51.85604
1391731,188.6267,254.4219,43.32369,51.82926
1391750,188.7814,254.1771,43.34715,51.80246
1391766,188.9107,253.9543,43.36672,51.77804
1391782,189.039,253.7744,43.38614,51.7583
1391800,189.2565,253.5543,43.41903,51.73413
1391816,189.4684,253.5493,43.45105,51.73358
1391838,189.6791,253.3481,43.48284,51.71146
1391857,189.939,253.3062,43.52201,51.70685
1391869,190.1401,253.1759,43.55229,51.69252
1391884,190.3429,253.1509,43.58279,51.68976
1391901,190.4646,253.0833,43.60107,51.68231
1391917,190.653,252.8344,43.62937,51.65489
1391932,190.8009,252.7783,43.65156,51.6487
1391950,190.91,252.5849,43.66792,51.62736
1391966,191.0496,252.3877,43.68884,51.60559
1391982,190.9929,252.4382,43.68034,51.61116
1391999,191.0508,252.2954,43.68902,51.59538
1392015,191.0755,252.2296,43.69271,51.5881
1392036,191.1107,252.1364,43.69798,51.57779
1392052,191.1122,252.0605,43.69821,51.5694
1392070,191.0691,252.039,43.69176,51.56701
1392090,191.0447,251.9484,43.68811,51.55699
1392102,190.9849,251.9814,43.67915,51.56065
1392117,190.8926,252.0046,43.66531,51.56321
1392134,190.8161,252.0481,43.65384,51.56802
1392153,190.6989,252.1033,43.63625,51.57413
1392170,190.5564,252.1785,43.61486,51.58245
1392188,190.4793,252.2005,43.60328,51.58488
1392201,190.3753,252.2032,43.58767,51.58518
1392217,190.2367,252.069,43.56683,51.57033
1392234,190.0842,252.0938,43.54387,51.57308
1392251,190.0056,252.1304,43.53205,51.57713
1392272,189.9925,252.2525,43.53007,51.59063
1392287,189.9625,252.3597,43.52555,51.60249
1392303,189.908,252.4921,43.51734,51.61711
1392318,189.8908,252.5895,43.51475,51.62787
1392336,189.8802,252.6436,43.51316,51.63385
1392352,189.8939,252.5878,43.51522,51.62768
1392371,189.8987,252.5988,43.51594,51.62889
1392386,189.9427,252.4883,43.52258,51.61669
1392406,189.9479,252.4736,43.52336,51.61507
1392421,190.0032,252.4096,43.53167,51.608
1392435,190.0761,252.2551,43.54265,51.59092
1392449,190.1115,252.1584,43.54799,51.58022
1392466,190.2108,252.1363,43.56292,51.57779
1392486,190.2397,251.982,43.56727,51.5607
1392503,190.3208,251.8548,43.57946,51.54662
1392520,190.4049,251.9083,43.59211,51.55255
1392535,190.4892,251.8177,43.60477,51.54251
1392552,190.5289,251.8356,43.61074,51.54449
1392570,190.6112,251.798,43.62309,51.54032
1392585,190.6392,251.7563,43.6273,51.5357
1392601,190.6466,251.6469,43.62841,51.52357
1392618,190.6283,251.7177,43.62566,51.53142
1392634,190.647,251.5392,43.62847,51.51162
1392652,190.6514,251.5404,43.62912,51.51176
1392670,190.709,251.4796,43.63778,51.50501
1392688,190.7311,251.4053,43.64109,51.49677
1392710,190.6805,251.26,43.6335,51.48062
1392721,190.6722,251.1548,43.63225,51.46893
1392736,190.7128,251.0338,43.63834,51.45547
1392752,190.7163,250.9411,43.63887,51.44516
1392767,190.7158,250.8561,43.63879,51.4357
1392786,190.7488,250.8852,43.64375,51.43894
1392801,190.8684,250.6969,43.66168,51.41796
1392818,190.9473,250.6868,43.6735,51.41684
1392836,191.0797,250.5921,43.69334,51.40629
1392853,191.2532,250.6199,43.71931,51.40939
1392871,191.4399,250.619,43.74725,51.40929
1392884,191.6999,250.6445,43.78609,51.41214
1392900,191.9684,250.6522,43.82615,51.41299
1392916,192.2695,250.6354,43.87102,51.41112
1392936,192.494,250.613,43.90442,51.40862
1392952,192.6798,250.5499,43.93204,51.40159
1392971,192.947,250.454,43.97171,51.39089
1392985,193.1481,250.2925,44.00153,51.37287
1393002,193.3025,250.1791,44.02441,51.36021
1393019,193.4657,250.0749,44.04857,51.34856
1393036,193.7258,250.1464,44.08704,51.35655
1393053,193.8838,250.1768,44.11039,51.35995
1393070,193.9987,250.2318,44.12735,51.36609
1393085,194.1258,250.3181,44.14611,51.37573
1393102,194.2606,250.3586,44.16598,51.38024
1393118,194.3303,250.4014,44.17625,51.38503
1393136,194.4182,250.3949,44.18921,51.38429
1393153,194.4368,250.3094,44.19195,51.37476
1393169,194.4402,250.2156,44.19245,51.36428
1393185,194.5308,250.031,44.20578,51.34365
1393204,194.5882,249.9526,44.21423,51.3349
1393218,194.6252,249.861,44.21968,51.32465
1393234,194.6666,249.7218,44.22577,51.30907
1393252,194.6876,249.6073,44.22886,51.29625
1393269,194.702,249.5689,44.23098,51.29195
1393285,194.7074,249.3888,44.23177,51.27176
1393302,194.7835,249.3505,44.24296,51.26746
1393318,194.783,249.3519,44.24288,51.26763
1393334,194.8803,249.3393,44.25719,51.26621
1393352,194.92,249.2703,44.26302,51.25847
1393368,194.9098,249.2618,44.26153,51.25752
1393385,194.8895,249.3122,44.25854,51.26316
1393401,194.9059,249.2788,44.26096,51.25943
1393417,194.8802,249.2225,44.25718,51.25311
1393435,194.9095,249.1494,44.26148,51.2449
1393451,194.9384,249.0738,44.26574,51.23642
1393467,194.929,249.0081,44.26435,51.22903
1393484,194.9775,248.8818,44.27147,51.21484
1393499,194.9586,248.747,44.26869,51.19968
1393516,195.0067,248.6541,44.27576,51.18924
1393534,195.0175,248.5395,44.27734,51.17633
1393550,194.9912,248.4748,44.27348,51.16904
1393568,195.0126,248.4095,44.27662,51.16168
1393583,195.0227,248.36,44.27811,51.15611
1393602,195.0746,248.283,44.28572,51.14743
1393616,195.1042,248.2438,44.29008,51.14301
1393633,195.1484,248.2323,44.29657,51.14171
1393650,195.2954,248.1257,44.31813,51.12968
1393667,195.4491,248.0531,44.34065,51.1215
1393683,195.6377,247.9296,44.36829,51.10756
1393700,195.8962,247.8885,44.4061,51.10291
1393716,196.211,247.8144,44.45209,51.09454
1393733,196.6534,247.75,44.5166,51.08727
1393752,196.9937,247.7155,44.56613,51.08337
1393767,197.4866,247.6737,44.6377,51.07863
1393784,197.9862,247.6118,44.71008,51.07164
1393801,198.4916,247.5288,44.78312,51.06225
1393818,199.0357,247.3881,44.86154,51.04632
1393835,199.5096,247.2623,44.92967,51.03207
1393851,200.0581,247.1107,45.00833,51.01489
1393868,200.6914,246.9387,45.09886,50.99538
1393884,201.3333,246.8118,45.19034,50.98098
1393901,201.9332,246.8212,45.27558,50.98204
1393918,202.612,246.7557,45.37171,50.9746
1393934,203.3272,246.6907,45.47265,50.96722
1393951,204.1529,246.6271,45.58873,50.95999
1393973,204.8637,246.554,45.68827,50.95169
1393987,205.7153,246.3262,45.80708,50.92577
1394008,206.5569,246.0669,45.92398,50.89624
1394023,207.3392,245.7421,46.03221,50.85919
1394039,208.2235,245.3305,46.15405,50.81216
1394054,209.283,244.8983,46.2993,50.76267
1394078,210.3981,244.325,46.45137,50.69687
1394091,211.3093,243.849,46.575,50.64209
1394116,212.9155,243.0381,46.79156,50.54848
1394131,213.8202,242.6886,46.91277,50.50802
1394141,214.7176,242.3702,47.03247,50.4711
1394155,216.0017,241.808,47.20282,50.40577
1394171,217.3205,241.3711,47.37664,50.35487
1394188,218.6051,240.9268,47.54487,50.303
1394206,219.9958,240.4853,47.72577,50.25134
1394220,221.4797,240.0666,47.91741,50.20224
1394240,222.7727,239.6932,48.08327,50.15839
1394253,224.4346,239.3278,48.29486,50.11538
1394271,225.8968,238.9712,48.4796,50.07333
1394289,227.3354,238.6403,48.66006,50.03425
1394304,228.9322,238.3395,48.85886,49.99867
1394320,230.4365,238.0429,49.0447,49.96354
1394337,232.0061,237.7844,49.23714,49.93288
1394353,233.6031,237.6447,49.43141,49.91629
1394370,235.156,237.4837,49.61885,49.89716
1394387,236.73,237.3691,49.8074,49.88353
1394403,238.3844,237.3302,50.00399,49.8789
1394420,240.121,237.3121,50.20863,49.87675
1394436,241.9467,237.3066,50.42189,49.87609
1394452,243.7786,237.3899,50.63398,49.88601
1394471,245.9066,237.5112,50.87796,49.90042
1394487,247.725,237.685,51.08444,49.92107
1394503,249.6949,237.8616,51.30606,49.94204
1394521,251.9695,238.0883,51.55931,49.96891
1394538,254.141,238.3318,51.79851,49.99776
1394552,256.493,238.7057,52.05473,50.04198
1394572,258.869,238.9727,52.31063,50.07351
1394587,261.3031,239.3421,52.56975,50.11706
1394604,263.7776,239.7611,52.83007,50.16636
1394620,266.3939,240.1052,53.10195,50.20677
1394635,269.2193,240.5025,53.39176,50.25336
1394655,272.3231,240.8147,53.70564,50.28989
1394671,275.0096,241.1722,53.97358,50.33166
1394686,277.9324,241.4809,54.26123,50.36766
1394703,281.2132,241.8647,54.5794,50.41236
1394718,284.08,242.2768,54.85342,50.46026
1394735,287.4566,242.7747,55.17146,50.51799
1394753,290.7171,243.254,55.47382,50.57344
1394770,293.6508,243.6986,55.74196,50.62476
1394787,296.8035,244.2753,56.02608,50.69116
1394803,299.7881,244.7432,56.29124,50.74489
1394819,302.4645,245.1354,56.52594,50.78983
1394835,305.2758,245.5445,56.76937,50.83662
1394852,307.8223,245.9648,56.98719,50.8846
1394869,310.095,246.3538,57.17946,50.92891
1394886,311.9796,246.9255,57.33739,50.99388
1394904,313.5616,247.606,57.46891,51.07098
1394919,314.9166,248.3892,57.58083,51.1594
1394935,315.9087,249.515,57.66233,51.2859
1394952,316.9075,250.9723,57.74402,51.44863
1394970,317.9604,252.3204,57.82973,51.59814
1394986,319.2183,253.7772,57.9316,51.75861
1395002,320.9346,255.5061,58.06967,51.94757
1395019,322.5724,257.0894,58.20044,52.11925
1395035,324.3298,258.67,58.33968,52.28931
1395053,326.2659,260.292,58.49183,52.46248
1395070,327.9258,261.609,58.62123,52.6021
1395086,329.6761,262.9063,58.75665,52.73875
1395104,331.7008,264.1059,58.91199,52.86438
1395120,333.496,265.0995,59.04857,52.96786
1395136,335.3267,266.0391,59.18674,53.06528
1395153,337.4971,266.9719,59.34912,53.16156
1395171,339.5478,267.8604,59.50112,53.25286
1395187,341.5556,268.7038,59.64863,53.33917
1395204,343.5524,269.6965,59.79406,53.44032
1395220,345.6232,270.6383,59.94354,53.53584
1395236,347.7306,271.7191,60.0943,53.64492
1395257,349.6645,272.7126,60.23144,53.74469
1395270,351.7914,273.9557,60.38096,53.86887
1395287,353.7957,275.1906,60.52061,53.9915
1395304,355.9665,276.5153,60.67052,54.12226
1395320,358.0687,278.0269,60.81437,54.27047
1395337,360.0034,279.4117,60.94563,54.4053
1395353,362.0727,280.9405,61.08482,54.55314
1395370,364.1107,282.458,61.22073,54.69884
1395386,366.1455,283.9326,61.35527,54.83942
1395403,368.0581,285.4121,61.48068,54.97949
1395419,369.9438,286.6994,61.60334,55.10057
1395436,371.8454,287.933,61.72606,55.21592
1395453,373.6785,288.9852,61.84344,55.31379
1395470,375.4134,289.9949,61.95372,55.40724
1395487,377.2627,291.062,62.07039,55.50553
1395504,378.9965,291.8458,62.17897,55.57742
1395520,380.6477,292.8482,62.28165,55.66896
1395537,382.1908,293.8046,62.37699,55.75592
1395553,383.7405,294.8931,62.47213,55.85442
1395570,385.0985,295.9405,62.555,55.94872
1395587,386.351,297.1397,62.63103,56.05613
1395606,387.4762,298.2057,62.69899,56.15111
1395622,388.4392,299.1838,62.75692,56.23785
1395637,389.1277,300.1773,62.79819,56.32556
1395654,389.8978,301.181,62.84422,56.41375
1395671,390.4218,301.992,62.87546,56.48471
1395688,390.9749,302.7344,62.90836,56.54945
1395705,391.4888,303.3696,62.93886,56.60466
1395721,391.9896,303.759,62.96852,56.63842
1395739,392.4414,304.0955,62.99524,56.66756
1395756,392.9526,304.3755,63.02539,56.69176
1395770,393.42,304.4208,63.05292,56.69567
1395789,393.9079,304.5367,63.08159,56.70568
1395805,394.4555,304.5445,63.11371,56.70635
1395822,395.0016,304.5147,63.14567,56.70378
1395837,395.4933,304.4464,63.17439,56.69789
1395854,396.0113,304.2754,63.20457,56.68311
1395871,396.531,304.0111,63.2348,56.66026
1395887,397.076,303.608,63.26643,56.62534
1395907,397.6034,303.1449,63.29697,56.58514
1395924,398.0837,302.553,63.32473,56.53366
1395939,398.6477,301.8194,63.35726,56.46964
1395955,399.1655,300.9619,63.38705,56.39454
1395973,399.7779,299.9864,63.42221,56.30873
1395989,400.2968,299.2089,63.45194,56.24007
1396007,400.8336,298.4347,63.48263,56.17146
1396022,401.4124,297.6494,63.51565,56.10161
1396039,401.8651,296.9616,63.54141,56.04022
1396054,402.3219,296.1942,63.56737,55.9715
1396072,402.7334,295.3636,63.59071,55.89683
1396089,403.1949,294.5888,63.61684,55.82693
1396107,403.5679,293.8654,63.63792,55.76143
1396120,403.8509,293.1121,63.6539,55.693
1396137,404.1069,292.3588,63.66834,55.62432
1396154,404.3749,291.5754,63.68344,55.55265
1396171,404.6212,290.8036,63.6973,55.48177
1396187,404.8596,290.0348,63.7107,55.41092
1396204,405.1336,289.2607,63.72609,55.33932
1396220,405.3405,288.5645,63.7377,55.27472
1396239,405.4796,287.8817,63.7455,55.21114
1396254,405.582,287.1321,63.75124,55.14111
1396272,405.7854,286.3528,63.76263,55.06805
1396289,405.9125,285.4955,63.76975,54.98735
1396305,406.029,284.7086,63.77626,54.91301
1396322,406.1886,283.9103,63.78519,54.8373
1396339,406.3195,283.1146,63.79251,54.76156
1396355,406.4311,282.2683,63.79874,54.68068
1396372,406.532,281.4958,63.80437,54.60658
1396389,406.5048,281.9025,63.80285,54.64563
1396405,406.553,281.441,63.80555,54.60131
1396423,406.5683,281.0118,63.8064,54.56002
1396439,406.6082,280.575,63.80862,54.51789
1396454,406.558,280.1612,63.80582,54.47792
1396472,406.5126,279.5536,63.80329,54.41908
1396488,406.5212,278.9929,63.80377,54.36462
1396505,406.4974,278.2947,63.80244,54.29661
1396524,406.3833,277.5835,63.79607,54.2271
1396544,406.2827,277.1103,63.79045,54.18072
1396556,406.1518,276.2994,63.78313,54.10101
1396572,405.998,275.4723,63.77453,54.01938
1396589,405.8882,274.784,63.76838,53.95121
1396606,405.6072,273.8683,63.75265,53.86016
1396621,405.362,273.0802,63.73891,53.78149
1396638,405.1184,272.3266,63.72524,53.70598
1396655,404.8649,271.41,63.711,53.61378
1396671,404.5715,270.4933,63.6945,53.52116
1396690,404.3481,269.6021,63.68193,53.43073
