Time Stamp(ms),Intersection,,Angle,
,x,y,x,y
543129.1,316.1371,245.1786,57.68104,50.79477
543145.5,315.9374,245.2511,57.66468,50.80307
543162.1,315.7119,245.3727,57.64619,50.81699
543179.1,315.5134,245.4484,57.6299,50.82564
543196.5,315.3499,245.4023,57.61647,50.82037
543212.3,315.2011,245.2828,57.60424,50.8067
543231.6,315.0723,245.154,57.59365,50.79197
543248.9,314.7804,244.9368,57.56961,50.76708
543266,314.5158,244.6086,57.5478,50.72944
543281.9,314.1712,244.0724,57.51935,50.66781
543300.9,313.9222,243.6477,57.49877,50.61889
543311.6,313.7285,243.4077,57.48273,50.59119
543327.4,313.4766,243.1843,57.46187,50.56538
543346.9,313.2548,243.0322,57.44348,50.54779
543363.4,313.1123,242.5465,57.43166,50.49155
543377.3,313.074,241.86,57.42847,50.41181
543393.7,313.1183,241.1549,57.43216,50.32964
543412.7,313.1328,240.6801,57.43336,50.27415
543429.2,313.1805,240.2237,57.43732,50.22068
543445.9,313.2252,239.8094,57.44102,50.17204
543462.1,313.2397,239.4896,57.44223,50.13443
543478.7,313.1407,239.364,57.43402,50.11964
543497.1,312.9154,239.5269,57.41531,50.13882
543513.6,312.6289,239.729,57.39148,50.16259
543530.4,312.1929,240.0221,57.35518,50.19703
543547.8,311.5098,240.4168,57.29814,50.24331
543563.8,310.8493,240.9061,57.24283,50.30058
543579.9,310.0957,241.4598,57.17951,50.36521
543594.7,309.1329,241.9463,57.09831,50.42185
543613.3,308.202,242.2899,57.01945,50.46178
543636,307.1966,242.4699,56.93391,50.48267
543647.1,306.262,242.4887,56.85403,50.48484
543662.8,305.334,242.3719,56.77438,50.4713
543680.1,304.431,242.0966,56.69655,50.43933
543697.6,303.6936,241.9534,56.63276,50.42268
543712.9,302.9049,241.5654,56.56429,50.37751
543732.3,302.3071,241.2386,56.51222,50.33941
543747.6,301.7988,240.8814,56.46783,50.29769
543763.8,301.2881,240.6689,56.42314,50.27284
543783.8,300.8461,240.583,56.38437,50.26278
543797.9,300.5299,240.5531,56.35659,50.25928
543813.3,300.2029,240.5059,56.32781,50.25375
543831.6,300.0099,240.4514,56.31081,50.24736
543847.6,299.9048,240.376,56.30154,50.23854
543864.1,299.8784,240.4064,56.29921,50.2421
543880.1,299.9028,240.4519,56.30136,50.24743
543899.6,299.8946,240.5801,56.30064,50.26244
543914.3,299.9618,240.9933,56.30656,50.31077
543957.1,300.126,242.1494,56.32104,50.44547
543968.7,300.1281,242.6047,56.32122,50.49829
543984.9,300.1057,242.9665,56.31924,50.5402
543995.6,300.0723,243.2659,56.3163,50.57482
544005.3,299.9477,243.7437,56.30532,50.62996
544018,299.7585,244.3273,56.28864,50.69714
544033.1,299.4992,244.8966,56.26574,50.76248
544047.9,299.1884,245.3686,56.23826,50.81651
544063.5,298.749,245.9251,56.19934,50.88007
544080.4,298.1373,246.6272,56.14503,50.96
544097.7,297.5166,247.2864,56.08977,51.0348
544114.2,296.8229,247.9929,56.02781,51.1147
544131.1,296.0772,248.5372,55.96099,51.17607
544146.8,295.2848,249.1578,55.88974,51.24584
544164.8,294.4865,249.7205,55.81768,51.30893
544180.1,293.4252,250.4383,55.72148,51.38914
544197.3,292.4652,251.2413,55.63404,51.47855
544213.7,291.1545,252.3743,55.51403,51.6041
544235.1,289.9059,253.4712,55.39902,51.725
544250.4,288.7428,254.4068,55.29128,51.8276
544264.5,287.4108,255.405,55.16718,51.93657
544281.9,286.0237,256.4187,55.03711,52.04668
544298.3,284.5306,257.5818,54.89615,52.17237
544314.3,283.0138,258.7368,54.75194,52.29646
544332.9,281.5759,259.6949,54.61427,52.39889
544349.9,279.986,260.6784,54.46097,52.50354
544368.1,278.437,261.638,54.31049,52.60516
544387.8,277.0134,262.5466,54.17121,52.70095
544402.5,275.5903,263.4509,54.03104,52.79587
544417,273.8683,264.5327,53.86016,52.90889
544436.4,272.6779,265.3348,53.74121,52.99231
544453.3,271.4145,266.1244,53.61423,53.0741
544466.9,270.1123,266.9295,53.48254,53.15719
544481.4,268.8981,267.7145,53.359,53.2379
544498.3,267.723,268.4447,53.23877,53.31269
544515.8,266.4372,269.4073,53.10642,53.41091
544534.8,265.2424,270.1685,52.98271,53.48824
544553.1,264.0338,270.7329,52.85684,53.54541
544570.1,262.7587,271.2409,52.72326,53.59672
544582.2,261.4915,271.8369,52.58967,53.65677
544600.3,260.3245,272.5511,52.46594,53.7285
544616.3,259.1926,273.3908,52.34525,53.81253
544633.7,257.9878,274.3364,52.21606,53.90676
544653.4,256.821,275.1619,52.09024,53.98866
544673.3,255.6756,275.7807,51.96601,54.04985
544686.4,254.6094,276.3001,51.84977,54.10108
544701.1,253.5422,276.8443,51.7328,54.15461
544717.8,252.4562,277.4557,51.61315,54.21459
544734.5,251.3719,278.1238,51.49306,54.27993
544750.5,250.214,278.8049,51.3641,54.34632
544767.8,249.1961,279.4224,51.25014,54.40634
544784.1,248.095,280.1882,51.12622,54.48053
544802.5,247.1232,280.8608,51.01631,54.54547
544818.6,246.3948,281.4214,50.93357,54.59943
544833.6,245.5489,282.124,50.83713,54.66686
544855.5,245.0225,282.7257,50.7769,54.72444
544870.3,244.515,283.236,50.7187,54.77313
544884.3,244.2678,283.9291,50.69029,54.83908
544900,244.0933,284.4979,50.67022,54.89305
544915.6,244.1793,285.0515,50.68011,54.94545
544933.3,244.2814,285.5181,50.69185,54.98949
544951.7,244.6663,285.9445,50.73606,55.02966
544976.8,245.1584,286.3575,50.79247,55.06849
544989.1,245.4041,286.6583,50.82057,55.09672
545001.6,245.9012,287.0347,50.87735,55.13199
545017,246.3755,287.4128,50.93138,55.16737
545034.3,246.8261,287.7645,50.9826,55.20021
545051.8,247.3947,288.0847,51.04707,55.23006
545071.3,247.8649,288.3085,51.10025,55.2509
545086.9,248.2845,288.6527,51.1476,55.28292
545104,248.5966,288.9407,51.18275,55.30966
545118.5,248.9804,289.2874,51.22592,55.3418
545134.8,249.3141,289.6655,51.26338,55.3768
545152.3,249.6071,289.999,51.29622,55.40762
545169.7,249.9108,290.3974,51.33022,55.44437
545186.3,250.0526,290.7325,51.34607,55.47523
545202.5,250.131,291.1094,51.35483,55.50989
545220.3,250.0725,291.4691,51.34829,55.5429
545234.2,249.9222,291.7478,51.33149,55.56844
545251.5,249.6326,292.1065,51.29908,55.60126
545267.4,249.0204,292.4317,51.23041,55.63098
545284.1,248.2859,292.8011,51.14776,55.66467
545300.6,247.062,293.297,51.00936,55.70982
545318,245.9371,293.7064,50.88144,55.74701
545334.9,244.3921,294.0712,50.70458,55.78009
545352.1,243.2059,294.4268,50.56788,55.81228
545367.1,241.6709,294.7701,50.3898,55.84331
545383.9,240.0512,295.0829,50.20044,55.87154
545401,238.1296,295.3334,49.97382,55.89412
545417.9,236.5217,295.6024,49.78252,55.91832
545433.1,234.5353,296.0017,49.54412,55.95421
545450.6,232.633,296.3942,49.31358,55.98943
545467.9,230.8835,296.7916,49.09966,56.02502
545484.4,228.9785,297.2712,48.86459,56.06787
545501,227.304,297.6001,48.65613,56.09721
545516.6,225.6481,297.8584,48.44828,56.12022
545532.9,223.7894,298.0894,48.21292,56.14077
545554.4,222.4173,298.215,48.03779,56.15194
545566.6,220.8663,298.3306,47.83837,56.16221
545588.1,219.5867,298.3671,47.67268,56.16545
545605.5,218.4713,298.2202,47.52739,56.1524
545617,217.4419,298.1224,47.39259,56.14371
545632.5,216.5392,298.0078,47.2738,56.13352
545649.7,215.7555,298.0284,47.17025,56.13535
545666.4,215.2691,297.9907,47.10577,56.13199
545685.4,215.1412,297.8459,47.08878,56.1191
545704.7,215.0303,297.7615,47.07405,56.11159
545716.9,214.9754,297.6788,47.06676,56.10422
545736.7,214.9835,297.5898,47.06784,56.09629
545751.3,214.8422,297.4741,47.04905,56.08597
545767.1,214.6179,297.2909,47.0192,56.06963
545783.4,214.41,297.0327,46.99151,56.04657
545800.4,214.147,296.8312,46.95642,56.02856
545822.1,213.8614,296.5969,46.91828,56.00759
545833.8,213.5569,296.3148,46.87756,55.9823
545849.7,213.2255,295.9972,46.83316,55.95381
545867,212.9485,295.5248,46.79599,55.91134
545885.8,212.6368,294.989,46.75411,55.86307
545906.8,212.3623,294.5544,46.71717,55.82381
545918.9,212.0613,294.1155,46.6766,55.78411
545934.9,211.671,293.5498,46.62392,55.73279
545952.9,211.292,292.9222,46.57266,55.67571
545968.3,210.9158,292.0516,46.52168,55.59625
545984.4,210.5261,291.1987,46.46878,55.51809
546000.5,210.1403,290.2672,46.41629,55.43237
546017.8,209.7842,289.2955,46.36776,55.34256
546038.1,209.3717,288.2413,46.31144,55.24464
546055.3,208.997,287.3014,46.26018,55.15695
546069.1,208.6896,286.3963,46.21805,55.07213
546084.4,208.3698,285.1416,46.17415,54.95396
546104.3,208.0381,283.668,46.12854,54.81427
546120.9,207.8511,282.5965,46.10281,54.71208
546134.6,207.7667,281.054,46.09118,54.56408
546150.8,207.8626,279.2562,46.10438,54.39021
546170,207.9363,277.9835,46.11453,54.26622
546185.6,208.3631,276.0314,46.17323,54.07459
546201.9,209.1585,273.5677,46.28228,53.8302
546225,209.9576,271.4566,46.39141,53.61847
546235.9,210.9541,269.4275,46.52687,53.41296
546252.9,212.1315,267.3748,46.68607,53.20301
546269.5,213.4115,265.3174,46.85808,52.99049
546285.6,215.6466,262.9329,47.15583,52.74155
546306.2,216.8471,261.789,47.31438,52.62112
546318.5,218.5918,260.5242,47.54312,52.48716
546334.7,220.7965,259.6145,47.82935,52.39032
546353.5,223.0662,258.9057,48.12077,52.31456
546369.6,225.5558,257.7069,48.43665,52.18584
546392.3,228.5595,256.2292,48.8126,52.02614
546408,231.2639,254.8459,49.14633,51.8756
546418.9,234.2885,253.1371,49.51432,51.68824
546439.7,238.151,250.9413,49.97635,51.44518
546457.8,241.1142,249.2075,50.32489,51.25142
546472.9,244.3232,247.1041,50.69666,51.01414
546485.4,247.8768,244.5759,51.10159,50.72569
546502.8,251.226,242.2419,51.47684,50.4562
546519.1,254.6079,239.9824,51.84961,50.19236
546535.3,258.4852,237.2104,52.2695,49.86464
546553.6,262.4694,234.3052,52.69283,49.51635
546571.8,265.7115,232.0325,53.03136,49.24036
546586.3,269.7155,229.4592,53.44225,48.92412
546603.5,273.4517,227.3514,53.81861,48.66206
546618.8,277.7495,225.3471,54.24335,48.41031
546636,282.3146,223.2974,54.68512,48.15026
546653.8,286.5897,221.6367,55.09029,47.93761
546670.2,292.0115,220.0835,55.59258,47.73714
546691.1,297.1158,218.9485,56.054,47.58965
546704.6,301.481,217.854,56.44004,47.44663
546719.9,307.0379,216.961,56.92036,47.32938
546736.1,312.6424,216.0394,57.3926,47.20781
546752.9,319.0248,215.3302,57.91597,47.11388
546769.8,325.0146,214.5913,58.39365,47.01566
546786.6,331.7897,213.7239,58.91879,46.8999
546804.3,338.271,212.6721,59.40664,46.75886
546820.1,345.1602,211.3586,59.91023,46.58167
546836.1,352.5336,209.6402,60.43281,46.34812
546852.1,360.614,207.6515,60.98683,46.0753
546874.4,368.4938,204.9126,61.50911,45.69511
546889.6,375.487,202.3644,61.95838,45.33669
546906,382.6589,199.7528,62.40579,44.96457
546920.4,389.3966,197.3385,62.81428,44.61623
546936.6,395.3752,195.0014,63.1675,44.27497
546952.7,401.1474,192.9297,63.50054,43.96914
546969.3,406.6101,190.8098,63.80873,43.65289
546988.4,410.5846,188.8768,64.02881,43.3616
547005.1,414.7248,186.5255,64.25443,43.00344
547019.9,417.3878,184.1904,64.39763,42.64358
547037.5,420.098,181.8451,64.54185,42.27791
547055.4,420.9297,179.6859,64.58579,41.93746
547071.6,421.8139,177.4391,64.63237,41.57929
547088.4,421.8724,175.4204,64.63544,41.25407
547106.1,421.0315,173.3237,64.59116,40.91281
547121.9,420.3558,171.2303,64.55548,40.56854
547138.3,419.2118,169.2371,64.49486,40.23742
547154.7,417.1678,167.0168,64.38585,39.86472
547172.1,415.3166,164.8426,64.28638,39.49579
547187.1,412.7581,162.5634,64.14771,39.1048
547204.7,410.3409,160.5582,64.01541,38.75718
547220.1,407.677,158.5689,63.86815,38.40894
547236.8,404.9618,156.7751,63.71644,38.09203
547253,401.7178,155.0908,63.53303,37.79193
547270.7,398.6809,153.4343,63.35917,37.49438
547286.9,395.31,151.5572,63.16369,37.15434
547305.6,392.5552,150.0961,63.00195,36.88751
547320.6,389.2382,148.5637,62.80481,36.60565
547337.7,386.1461,147.4098,62.61861,36.39203
547353.6,382.7304,146.2962,62.41019,36.18477
547370.9,379.1035,145.3127,62.18565,36.00078
547388.3,376.1705,144.5014,62.00159,35.84837
547404.6,373.2973,143.7596,61.81911,35.70851
547421.4,370.5329,143.267,61.64146,35.61535
547437.4,367.744,142.76,61.46015,35.51925
547453.6,364.8611,142.3435,61.27048,35.44012
547470.8,362.2144,141.8788,61.09431,35.35167
547488.3,359.8333,141.2437,60.93413,35.23044
547506.3,357.5148,140.4845,60.77659,35.08506
547522.1,355.4446,139.8676,60.6346,34.96656
547538.8,353.2935,139.4218,60.48573,34.88069
547555.2,350.8683,139.0266,60.31623,34.80444
547576.8,348.6406,138.5837,60.15897,34.7188
547591.8,346.5626,137.9814,60.01091,34.60206
547605.8,344.7488,137.3138,59.88059,34.47229
547621.6,342.9809,136.4326,59.75256,34.30036
547638.6,341.5506,135.7046,59.64827,34.15779
547655,340.153,135.0748,59.54572,34.03406
547671.8,338.9523,134.3028,59.45712,33.88191
547689.1,337.9304,133.7657,59.38134,33.77573
547705.4,337.1162,133.0775,59.32073,33.6393
547722.8,336.3117,132.5466,59.26063,33.53375
547738.7,335.6909,132.097,59.2141,33.44417
547755.2,335.2626,131.9283,59.18192,33.41049
547773.3,334.9239,131.9813,59.15644,33.42108
547789.7,334.8112,132.2093,59.14795,33.46656
547806.3,335.0294,133.1634,59.16438,33.65636
547830.4,335.3105,133.6382,59.18553,33.7505
547838.8,335.8186,134.4743,59.22368,33.91576
547855.4,336.7581,135.5672,59.29401,34.13083
547873.6,337.7778,136.6472,59.37001,34.3423
547889.3,339.3506,137.9443,59.48656,34.59486
547906.4,341.8582,139.9694,59.67075,34.98613
547927.2,344.6068,141.8475,59.87033,35.3457
547942.3,348.3474,144.245,60.13816,35.80008
547956.4,352.1996,146.2172,60.4095,36.17002
547974.3,357.7779,148.6174,60.79454,36.61555
547990.8,363.433,150.9786,61.17567,37.0489
548006.9,370.2208,153.5657,61.62128,37.51808
548028.4,378.2216,156.0407,62.13054,37.96148
548042.5,386.9015,158.5782,62.66432,38.41058
548061.2,395.0435,160.9469,63.14812,38.82483
548079.4,403.8608,163.7126,63.65446,39.30248
548090.6,412.6453,167.0916,64.14156,39.87733
548108.7,420.4738,170.6293,64.56172,40.46904
548124,427.4807,175.4066,64.92711,41.25183
548140.5,432.9947,179.7189,65.20781,41.94268
548155.5,438.0484,184.4435,65.45995,42.68279
548174.1,441.6188,190.4325,65.63522,43.59625
548193.8,443.2263,196.0905,65.71336,44.43449
548210.2,444.5946,201.2025,65.7795,45.17173
548225.7,445.1952,206.2782,65.80843,45.88532
548241.4,444.6912,211.7386,65.78416,46.63306
548258.1,444.481,216.986,65.77402,47.33266
548274.8,443.8498,223.3936,65.74354,48.16253
548302.4,443.5243,228.5906,65.72779,48.81646
548312.9,443.178,232.1397,65.71101,49.25346
548324.4,443.2195,237.0731,65.71303,49.8483
548340.8,443.7477,242.1684,65.73859,50.44767
548357.4,444.6292,246.8055,65.78117,50.98026
548373.6,446.3074,252.2549,65.86182,51.5909
548395.6,448.1194,256.7826,65.94833,52.08608
548410.1,451.1473,261.5748,66.09161,52.59848
548428.7,454.32,266.4545,66.24003,53.10821
548440.9,458.2269,271.7724,66.42042,53.65028
548457.5,462.8557,277.2316,66.63082,54.19263
548474.6,466.9897,282.3563,66.81577,54.68911
548491.7,470.9028,287.1683,66.98829,55.1445
548509.1,473.4359,290.6836,67.09868,55.47073
548524.9,475.7002,294.1189,67.19652,55.78441
548540.7,477.4729,297.3386,67.27256,56.07389
548557.3,478.2049,299.7674,67.30382,56.28942
548574.3,478.7785,302.3594,67.32825,56.51678
548591.1,478.6731,304.7328,67.32377,56.7226
548608.1,477.3923,306.9504,67.26911,56.9129
548624.7,476.3287,309.1525,67.22353,57.09996
548640.9,474.8968,311.7355,67.16189,57.31701
548657.8,472.6029,314.1403,67.06249,57.5168
548675.7,470.5792,316.3988,66.97411,57.70246
548691.3,468.2314,318.488,66.87077,57.87253
548708.9,466.4349,320.4173,66.79111,58.02816
548725,464.4865,322.4417,66.70411,58.19003
548742.3,462.6981,324.436,66.62371,58.34806
548758.8,461.1027,326.1644,66.55155,58.48389
548774.4,459.4303,327.8684,66.47546,58.61678
548792.6,458.0206,329.3782,66.41096,58.73368
548808.7,456.701,330.7733,66.35027,58.841
548826.4,455.3102,332.1149,66.28599,58.9436
548843.3,453.9005,333.296,66.2205,59.03341
548858,452.031,334.4093,66.13313,59.11765
548875.7,450.2053,335.2077,66.04721,59.1778
548895.6,447.6998,336.2805,65.92835,59.25829
548914.2,446.1818,336.9886,65.8558,59.31121
548930.1,444.1372,337.57,65.75742,59.35454
548946.1,441.8423,337.7204,65.6461,59.36573
548959.3,439.575,337.8253,65.53518,59.37353
548976.4,437.4252,337.7393,65.42912,59.36714
548993.1,434.2409,337.0072,65.27044,59.3126
549013.4,432.1016,336.2393,65.16275,59.25521
549027.1,429.7701,335.6029,65.04437,59.2075
549043.1,426.6536,334.2877,64.88449,59.10846
549063.1,423.7437,333.1011,64.73347,59.01863
549078.4,421.4385,331.9163,64.61262,58.92845
549094.1,418.9895,330.506,64.48304,58.82049
549112.1,416.5426,329.3944,64.35234,58.73493
549128.3,413.9832,327.886,64.21428,58.61814
549144.4,411.4843,326.0191,64.07815,58.47251
549159.7,408.615,323.6745,63.92018,58.28788
549176.3,405.2187,321.3908,63.73087,58.10619
549193.1,402.0838,319.3749,63.55385,57.94425
549209.7,398.4944,317.0413,63.34843,57.75493
549229.9,394.6349,315.0329,63.12422,57.5904
549245.3,391.4967,313.2373,62.93933,57.44203
549260.3,387.4606,310.9764,62.69805,57.25348
549277.3,384.132,308.7923,62.49606,57.0695
549292.8,380.5374,306.2643,62.27482,56.85423
549310.2,377.0009,303.9604,62.05393,56.65586
549329.6,373.4853,301.5375,61.83112,56.44498
549344,369.7802,298.6035,61.59274,56.18644
549360.9,366.4556,295.892,61.37567,55.94436
549376.4,363.0039,292.9911,61.14707,55.68198
549392.9,359.3912,290.3857,60.90421,55.44329
549410.8,356.1535,288.2827,60.68337,55.2485
549427.8,352.7726,286.9172,60.44947,55.12099
549444.3,349.3672,285.7003,60.21043,55.00666
549460.9,345.8874,284.3804,59.96251,54.88192
549478,342.7937,283.0466,59.73895,54.75507
549496.8,339.7439,282.0378,59.51558,54.6586
549513.7,336.6261,281.5726,59.28414,54.61396
549530.3,333.6163,281.2569,59.05769,54.58361
549546.6,330.1497,280.7632,58.79312,54.53605
549561.8,326.5854,279.6611,58.51681,54.4295
549580.4,323.894,278.7491,58.30526,54.3409
549595.9,321.4382,277.9405,58.10998,54.26202
549610.3,318.3444,276.8523,57.86089,54.15539
549628.6,315.3797,275.6767,57.61892,54.03959
549649,312.8859,274.7701,57.41285,53.94983
549663.3,309.9823,273.7567,57.16997,53.84904
549684.4,307.6305,273.0823,56.97087,53.7817
549697,305.342,272.3075,56.77507,53.70406
549714.3,302.7121,271.0867,56.5475,53.58115
549732.4,300.4252,269.8573,56.34738,53.45666
549749.6,298.5169,268.3321,56.17875,53.30117
549764.6,296.5508,266.2076,56.00346,53.0827
549782.5,294.8358,264.177,55.84924,52.8718
549797,293.268,262.4142,55.70718,52.68702
549815.4,291.6084,260.8178,55.55567,52.51833
549834.2,290.2365,259.7472,55.42953,52.40447
549850,288.9068,258.9282,55.30651,52.31697
549865,287.7276,258.3834,55.19676,52.25857
549880.8,286.488,257.8191,55.08074,52.19792
549897.8,285.3917,257.3181,54.97756,52.14393
549914.3,284.4536,256.9711,54.88886,52.10646
549930.8,283.5124,256.5482,54.79946,52.06072
549952,282.7152,256.0113,54.72343,52.0025
549968.8,282.0684,255.5453,54.66154,51.95184
549983.7,281.4119,255.0492,54.59851,51.89779
549999.3,280.9547,254.5271,54.55451,51.84077
550013.4,280.4168,253.9675,54.50262,51.77949
550032,280.0662,253.5006,54.46873,51.72823
550047.2,279.6891,253.157,54.43221,51.69043
550065.1,279.423,252.8327,54.40641,51.6547
550080.5,279.2428,252.5838,54.38891,51.62724
550097.4,279.1028,252.3298,54.37531,51.59918
550117.4,279.0027,252.0231,54.36558,51.56525
550134.8,278.9139,251.807,54.35693,51.54132
550148.3,278.8611,251.614,54.3518,51.51992
550164.1,278.8271,251.5042,54.34849,51.50774
550180.4,278.8184,251.4294,54.34764,51.49944
550197.3,278.7798,251.2935,54.34388,51.48434
550213.8,278.7248,251.1226,54.33853,51.46535
550230.6,278.6556,250.9255,54.33179,51.44343
550247.1,278.5244,250.7852,54.319,51.42781
550264,278.3751,250.57,54.30445,51.40383
550281.4,278.1717,250.3441,54.2846,51.37864
550297.2,277.9205,250.075,54.26007,51.34858
550312.4,277.5279,249.7317,54.22166,51.31017
550331.9,277.2726,249.4161,54.19664,51.27482
550347.6,276.7285,248.8789,54.14323,51.21452
550367.1,276.2034,248.2349,54.09155,51.14201
550380.4,275.6042,247.3504,54.03242,51.04205
550397.1,274.4784,246.2939,53.92087,50.92208
550415.9,272.8461,245.0557,53.75806,50.7807
550430.3,271.1425,243.9775,53.5868,50.65689
550447,268.9435,242.8757,53.36364,50.52969
550463.7,265.7826,241.8192,53.03873,50.40707
550480.9,262.7815,240.9811,52.72565,50.30934
550500.2,259.9305,240.3055,52.424,50.23027
550516.4,256.6453,239.9089,52.07123,50.18373
550532.9,253.3666,239.468,51.71349,50.13189
550548.4,250.5719,239.1494,51.40404,50.09435
550564.1,247.6008,238.9312,51.07039,50.06861
550580.5,244.7053,238.6982,50.74054,50.0411
550597.4,242.185,238.5229,50.44959,50.02037
550612.8,239.4863,238.3231,50.13404,49.99673
