Time Stamp(ms),Intersection,,Angle,
,x,y,x,y
1354292,321.9497,245.7717,58.15083,50.86256
1354308,322.7987,245.2358,58.21842,50.80133
1354326,323.6234,244.8767,58.28384,50.7602
1354341,324.4651,244.8146,58.35035,50.75307
1354357,325.2516,244.8239,58.41229,50.75414
1354372,326.0556,244.9964,58.47537,50.77391
1354390,326.6695,245.2099,58.52338,50.79836
1354406,327.1162,245.4309,58.55824,50.82364
1354423,327.4878,245.7281,58.58718,50.85759
1354439,327.7921,246.0409,58.61085,50.89327
1354456,328.0442,246.2796,58.63043,50.92046
1354472,328.1005,246.5956,58.6348,50.95641
1354490,328.2016,246.708,58.64264,50.96919
1354506,328.2926,246.8011,58.6497,50.97976
1354524,328.3264,246.9382,58.65232,50.99533
1354540,328.3594,246.9747,58.65488,50.99946
1354557,328.4847,246.6737,58.66459,50.96529
1354576,328.5617,246.159,58.67056,50.90673
1354593,328.564,245.8302,58.67073,50.86924
1354608,328.3795,245.4774,58.65644,50.82896
1354626,328.0826,245.2566,58.6334,50.80371
1354642,327.4845,245.1822,58.58692,50.79519
1354658,326.9251,245.2378,58.54333,50.80156
1354675,326.0846,245.4011,58.47764,50.82024
1354693,325.4333,245.5149,58.42656,50.83324
1354709,324.7088,245.7368,58.36957,50.85858
1354727,324.0196,245.9253,58.31518,50.8801
1354743,323.4957,246.0719,58.27373,50.89681
1354759,323.107,246.0305,58.2429,50.89209
1354777,322.6484,245.9524,58.20647,50.88319
1354797,322.6268,245.5384,58.20476,50.83592
1354812,322.534,245.3213,58.19738,50.81111
1354827,322.4932,245.1397,58.19413,50.79032
1354844,322.6055,244.8994,58.20307,50.76279
1354860,322.725,244.8411,58.21256,50.75611
1354876,322.9405,244.8425,58.22969,50.75627
1354893,323.2649,244.9936,58.25543,50.77359
1354909,323.5072,245.1718,58.27464,50.79399
1354926,323.7742,245.3708,58.29578,50.81677
1354943,324.069,245.6417,58.31909,50.84773
1354959,324.2993,245.8821,58.33728,50.87516
1354977,324.5175,246.0643,58.35449,50.89594
1354995,324.6612,246.2647,58.36582,50.91877
1355011,324.7509,246.4218,58.37288,50.93665
1355028,324.7314,246.4959,58.37135,50.94508
1355043,324.5941,246.5747,58.36053,50.95403
1355070,324.239,246.7632,58.33252,50.97545
1355086,323.6832,246.9232,58.28857,50.99362
1355097,323.2566,246.9607,58.25478,50.99788
1355111,322.5459,247.0016,58.19832,51.00252
1355124,321.127,246.9507,58.08508,50.99674
1355141,319.5629,246.8621,57.95941,50.98669
1355156,317.657,246.7434,57.80507,50.9732
1355174,314.8232,246.603,57.57313,50.95725
1355192,312.3885,246.5618,57.37148,50.95257
1355208,309.4703,246.4725,57.1268,50.94241
1355224,306.7015,246.4728,56.89163,50.94244
1355241,303.8894,246.4763,56.64972,50.94285
1355257,301.0212,246.4375,56.39974,50.93843
1355274,297.6601,246.4318,56.10255,50.93778
1355294,295.0861,246.3749,55.87183,50.93131
1355308,292.2356,246.405,55.61307,50.93473
1355328,289.3993,246.4392,55.35217,50.93862
1355344,286.7822,246.4815,55.10833,50.94344
1355360,284.1643,246.4946,54.86142,50.94492
1355376,281.287,246.4146,54.58651,50.93582
1355393,278.4449,246.4425,54.31126,50.939
1355412,275.8383,246.4899,54.05554,50.94439
1355427,273.2131,246.4721,53.79478,50.94236
1355442,270.2803,246.6173,53.49958,50.95888
1355459,267.7052,246.5654,53.23694,50.95298
1355475,264.7128,246.4757,52.92764,50.94277
1355494,261.9926,246.514,52.6426,50.94714
1355509,259.3137,246.5162,52.35819,50.94738
1355526,256.4536,246.5207,52.05047,50.94789
1355543,253.8362,246.515,51.76508,50.94725
1355558,251.2838,246.6038,51.48327,50.95734
1355575,248.5535,246.8194,51.17791,50.98184
1355592,245.9,246.9875,50.87721,51.00092
1355610,243.6477,247.2265,50.61889,51.02802
1355628,241.425,247.3647,50.36116,51.04367
1355645,239.3712,247.6444,50.12049,51.07533
1355661,237.4698,247.7809,49.8955,51.09076
1355678,235.8158,247.8393,49.69807,51.09735
1355694,233.9212,247.9087,49.46992,51.10519
1355710,232.3229,247.9558,49.2758,51.11052
1355725,230.6926,247.9909,49.0762,51.11448
1355745,229.2146,247.8956,48.89384,51.10371
1355759,227.8635,247.8619,48.72598,51.09991
1355778,226.4884,247.8612,48.55397,51.09983
1355796,225.2483,247.7706,48.39784,51.08959
1355815,223.949,247.7309,48.23322,51.0851
1355826,222.6403,247.6564,48.06633,51.07668
1355846,221.5285,247.6371,47.9237,51.0745
1355858,220.309,247.5481,47.76633,51.06443
1355874,219.054,247.426,47.6034,51.05062
1355897,217.8465,247.3262,47.44566,51.03931
1355913,216.8359,247.1507,47.31291,51.01943
1355929,215.8197,246.9995,47.17875,51.00228
1355946,214.7228,246.8857,47.03317,50.98936
1355962,213.7181,246.7261,46.89912,50.97124
1355979,212.746,246.6168,46.76878,50.95882
1355995,211.7606,246.5225,46.63603,50.94809
1356011,210.8309,246.552,46.51016,50.95145
1356031,210.0267,246.7281,46.40081,50.97146
1356047,209.284,247.1221,46.29945,51.01619
1356062,208.6768,247.4056,46.21629,51.0483
1356076,208.2961,247.8225,46.16402,51.09546
1356093,207.857,248.3995,46.10361,51.16056
1356113,207.6736,249.042,46.07835,51.23283
1356127,207.5855,249.9223,46.0662,51.3315
1356144,207.444,250.6781,46.04668,51.41587
1356160,207.4433,251.1273,46.04658,51.46587
1356177,207.2186,251.1665,46.01554,51.47023
1356193,206.8725,251.0806,45.96769,51.46068
1356210,206.4093,250.7415,45.90351,51.42294
1356230,205.9121,250.523,45.83445,51.39859
1356247,205.2269,250.4224,45.739,51.38737
1356259,204.3448,250.2609,45.61563,51.36934
1356280,203.6237,250.1797,45.51438,51.36027
1356294,202.6589,250.2488,45.37834,51.36799
1356311,201.7897,250.399,45.25521,51.38475
1356327,200.8592,250.56,45.12281,51.40271
1356345,199.8209,251.1118,44.97434,51.46415
1356361,198.7701,251.533,44.82328,51.51094
1356378,197.7608,252.049,44.67746,51.56812
1356395,196.547,252.5492,44.5011,51.62342
1356411,195.5276,252.9063,44.35216,51.66282
1356427,194.4315,253.1736,44.19117,51.69226
1356446,193.3749,253.254,44.03514,51.70111
1356463,192.4304,253.328,43.89496,51.70926
1356482,191.7072,253.2553,43.78718,51.70125
1356497,191.0059,253.3298,43.68229,51.70945
1356514,190.3843,253.3412,43.589,51.7107
1356532,189.6916,253.3488,43.48472,51.71154
1356549,189.2303,253.2214,43.41508,51.69753
1356566,188.8147,253.0538,43.35218,51.67907
1356584,188.4485,253.0349,43.29667,51.67698
1356599,188.1551,253.1074,43.25211,51.68497
1356614,187.9467,253.2502,43.22042,51.70069
1356633,187.723,253.4858,43.18637,51.7266
1356649,187.5911,253.7557,43.16627,51.75625
1356665,187.5114,254.1335,43.15412,51.79768
1356682,187.6571,254.5622,43.17634,51.84461
1356699,187.7204,254.9263,43.18598,51.88438
1356717,187.8365,255.2736,43.20365,51.92225
1356733,188.1364,255.5689,43.24927,51.95441
1356748,188.4312,255.8785,43.29404,51.98807
1356765,188.7142,256.0553,43.33696,52.00727
1356782,189.0598,256.227,43.38929,52.0259
1356799,189.3504,256.5812,43.43323,52.06429
1356815,189.7242,256.8045,43.48964,52.08846
1356832,190.2304,257.0568,43.56587,52.11572
1356851,190.7627,257.2218,43.64584,52.13354
1356866,191.4693,257.4152,43.75164,52.15441
1356882,192.0832,257.5971,43.84325,52.17401
1356898,192.7324,257.7208,43.93984,52.18734
1356914,193.6248,257.9679,44.07212,52.21393
1356932,194.3355,258.261,44.17702,52.24542
1356949,195.0115,258.6682,44.27647,52.28912
1356966,195.6783,259.0564,44.37423,52.33069
1356982,196.237,259.576,44.45589,52.38621
1356998,196.8769,260.2463,44.54914,52.45762
1357017,197.5221,260.9607,44.64286,52.53349
1357033,198.1855,261.7284,44.7389,52.61471
1357056,198.8007,262.4568,44.82769,52.69151
1357068,199.3135,262.9696,44.9015,52.74541
1357081,199.942,263.7424,44.99168,52.82639
1357098,200.6758,264.4083,45.09664,52.89592
1357118,201.5608,265.0202,45.22269,52.95963
1357133,202.3776,265.5159,45.33855,53.01109
1357150,203.1994,265.9335,45.45464,53.05436
1357170,204.1059,266.3102,45.58213,53.09331
1357187,204.8171,266.6046,45.68175,53.12371
1357200,205.4198,266.8148,45.76591,53.14537
1357216,205.8651,267.078,45.82792,53.17248
1357232,206.029,267.3763,45.8507,53.20317
1357252,206.1342,267.6106,45.86533,53.22723
1357266,205.8988,267.9122,45.8326,53.25818
1357283,205.5703,268.3304,45.78688,53.301
1357305,205.2262,268.5873,45.73891,53.32727
1357318,204.8165,268.9092,45.68167,53.36014
1357331,204.3792,269.246,45.62046,53.39447
1357349,203.8978,269.5858,45.55291,53.42906
1357368,203.5403,269.84,45.50265,53.4549
1357384,203.1655,270.0886,45.44985,53.48013
1357400,202.977,270.3109,45.42326,53.50268
1357416,202.8097,270.5164,45.39965,53.52349
1357432,202.7897,270.6822,45.39682,53.54027
1357450,202.8109,270.8255,45.39982,53.55476
1357466,202.9481,270.9683,45.41918,53.5692
1357482,203.2115,271.1873,45.45634,53.59131
1357501,203.5138,271.4618,45.49892,53.619
1357519,203.6757,271.6399,45.5217,53.63694
1357532,203.8372,271.8135,45.5444,53.65442
1357552,204.0152,271.9583,45.5694,53.66899
1357568,204.1624,272.1276,45.59006,53.686
1357582,204.2317,272.3575,45.59977,53.70908
1357611,204.3552,272.5736,45.61709,53.73077
1357627,204.3332,272.6892,45.61401,53.74235
1357638,204.3417,272.8359,45.6152,53.75704
1357652,204.2625,273.0106,45.60409,53.77453
1357668,204.2238,273.2084,45.59867,53.79431
1357686,204.1807,273.3523,45.59263,53.80869
1357702,204.1062,273.6173,45.58217,53.83514
1357718,204.0742,273.8871,45.57769,53.86203
1357735,203.9802,274.1965,45.56449,53.89285
1357753,203.951,274.3581,45.56038,53.90892
1357767,203.8986,274.5186,45.55303,53.92486
1357784,203.8153,274.6577,45.54132,53.93867
1357802,203.7613,274.7708,45.53374,53.9499
1357818,203.675,274.8301,45.52161,53.95578
1357835,203.6263,274.9682,45.51475,53.96947
1357855,203.6178,275.0326,45.51355,53.97586
1357870,203.6558,274.959,45.5189,53.96856
1357887,203.6477,275.0008,45.51776,53.97271
1357904,203.631,274.9726,45.51541,53.96991
1357920,203.5463,274.914,45.50349,53.9641
1357939,203.5274,274.8965,45.50084,53.96237
1357957,203.4956,274.9025,45.49636,53.96296
1357970,203.4373,274.99,45.48816,53.97164
1357986,203.4172,275.0676,45.48532,53.97932
1358003,203.3152,275.2099,45.47096,53.99342
1358020,203.1568,275.3277,45.44863,54.00508
1358036,202.8918,275.4224,45.41124,54.01445
1358055,202.6232,275.5031,45.37329,54.02243
1358071,202.254,275.5189,45.32106,54.02399
1358088,201.6189,275.5337,45.23095,54.02545
1358105,200.9725,275.4788,45.13896,54.02003
1358120,200.3217,275.5171,45.04604,54.02381
1358135,199.5275,275.5643,44.93224,54.02848
1358153,198.9218,275.6312,44.84515,54.03509
1358170,198.354,275.6965,44.76325,54.04154
1358187,197.8304,275.7559,44.68754,54.0474
1358204,197.426,275.6597,44.62893,54.0379
1358223,197.06,275.6996,44.57576,54.04185
1358237,196.8465,275.6695,44.54471,54.03888
1358254,196.6431,275.6156,44.5151,54.03355
1358273,196.521,275.5174,44.49731,54.02384
1358288,196.4439,275.4545,44.48607,54.01762
1358304,196.4337,275.3362,44.48458,54.00592
1358321,196.4602,275.2594,44.48845,53.99832
1358338,196.533,275.1289,44.49905,53.9854
1358354,196.5865,274.9877,44.50686,53.97141
1358372,196.7432,274.8736,44.52967,53.9601
1358388,196.7835,274.7285,44.53555,53.94571
1358404,196.7292,274.5951,44.52764,53.93246
1358419,196.7117,274.6495,44.5251,53.93786
1358436,196.6651,274.7602,44.5183,53.94884
1358454,196.6015,274.8394,44.50904,53.9567
1358470,196.5031,274.8857,44.49469,53.9613
1358487,196.4302,274.8839,44.48407,53.96111
1358503,196.3855,274.8309,44.47756,53.95586
1358520,196.3509,274.8295,44.4725,53.95572
1358536,196.4709,274.6681,44.49001,53.9397
1358553,196.4749,274.4977,44.49059,53.92279
1358570,196.4751,274.3273,44.49063,53.90585
1358586,196.4997,274.1165,44.49421,53.88488
1358603,196.4667,273.9786,44.48939,53.87115
1358619,196.4275,273.7673,44.48368,53.8501
1358635,196.3727,273.6199,44.47568,53.8354
1358652,196.4006,273.4257,44.47976,53.81602
1358669,196.4771,273.2714,44.49091,53.80061
1358685,196.5306,273.1468,44.49871,53.78815
1358702,196.6958,273.0571,44.52278,53.77918
1358718,196.8206,272.8459,44.54095,53.75804
1358738,196.9547,272.8132,44.56046,53.75476
1358755,197.0939,272.7129,44.58069,53.74472
1358773,197.2817,272.5917,44.60798,53.73257
1358789,197.5018,272.5711,44.63992,53.73051
1358812,197.7216,272.3862,44.67178,53.71196
1358823,197.9541,272.3669,44.70544,53.71002
1358838,198.2447,272.1558,44.74746,53.68883
1358855,198.4635,272.0375,44.77906,53.67694
1358872,198.5774,272.0424,44.79551,53.67743
1358890,198.7503,271.9041,44.82044,53.66353
1358907,198.9548,271.7651,44.8499,53.64954
1358922,199.1335,271.6661,44.87561,53.63958
1358941,199.2763,271.4791,44.89616,53.62074
1358955,199.4756,271.3536,44.92478,53.60809
1358975,199.6113,271.1441,44.94427,53.58695
1358988,199.724,270.998,44.96044,53.5722
1359004,199.8794,270.9533,44.98272,53.56769
1359022,200.0549,270.9214,45.00786,53.56446
1359037,200.2008,270.8419,45.02875,53.55643
1359054,200.5048,270.7441,45.07221,53.54653
1359073,200.7825,270.7271,45.11186,53.54481
1359091,201.2079,270.6401,45.1725,53.53602
1359109,201.6653,270.542,45.23755,53.52608
1359125,202.211,270.5586,45.31496,53.52777
1359142,202.7196,270.5711,45.38692,53.52903
1359158,203.3375,270.6736,45.4741,53.5394
1359174,204.1878,270.951,45.59363,53.56745
1359190,204.9222,271.2471,45.69645,53.59735
1359205,205.9053,271.4866,45.83352,53.6215
1359223,207.1501,271.7864,46.00608,53.65169
1359242,208.397,272.1452,46.17788,53.68777
1359258,209.6914,272.3144,46.35511,53.70476
1359273,211.4484,272.595,46.59383,53.73291
1359292,213.2493,272.8574,46.83635,53.75919
1359308,215.011,273.0379,47.0715,53.77726
1359324,217.0178,273.299,47.33685,53.80336
1359347,219.362,273.543,47.64348,53.82772
1359359,221.3197,273.7825,47.89682,53.85162
1359373,223.4611,274.1179,48.17113,53.88503
1359391,225.8858,274.5251,48.47822,53.9255
1359408,229.1037,275.191,48.8801,53.99155
1359432,231.0379,275.6521,49.1186,54.03716
1359442,233.0677,276.1849,49.36645,54.08973
1359456,235.4018,276.7151,49.6484,54.14191
1359473,237.9362,277.1646,49.95089,54.18605
1359491,239.9648,277.652,50.1903,54.23381
1359507,242.2318,278.0951,50.45503,54.27713
1359525,244.4772,278.6798,50.71435,54.33415
1359549,247.1288,279.258,51.01694,54.39038
1359562,249.1513,279.6619,51.24511,54.42957
1359576,251.5639,280.1608,51.51437,54.47788
1359593,254.1686,280.7586,51.80153,54.53561
1359609,257.2107,281.3297,52.13234,54.59061
1359628,259.7841,281.9729,52.40841,54.65237
1359644,262.3397,282.5627,52.67918,54.70885
1359659,265.0959,283.2344,52.96749,54.77298
1359675,267.997,283.9926,53.26687,54.84512
1359694,270.4859,284.6825,53.5204,54.91053
1359711,272.8227,285.2491,53.75572,54.96411
1359728,275.1365,285.7396,53.98615,55.01037
1359742,277.5412,286.3987,54.22296,55.07236
1359759,279.8466,286.9569,54.44748,55.12471
1359776,282.3189,287.4869,54.68553,55.17429
1359794,284.7365,288.0526,54.91565,55.22707
1359811,286.7719,288.4209,55.10737,55.26136
1359826,288.8698,288.7734,55.30307,55.29413
1359842,291.1952,289.2075,55.51776,55.33439
1359859,293.2492,289.4942,55.70547,55.36095
1359876,295.622,289.8145,55.92009,55.39058
1359895,297.6522,290.0216,56.10186,55.40971
1359910,299.5258,290.1884,56.26809,55.4251
1359923,302.256,290.5505,56.50776,55.45848
1359945,303.6017,290.6974,56.62479,55.472
1359956,305.6607,291.0428,56.80246,55.50376
1359973,307.719,291.4623,56.9784,55.54228
1359993,309.748,291.7536,57.15023,55.56898
1360010,311.545,292.0466,57.30108,55.59579
1360027,313.3839,292.213,57.45419,55.611
1360043,315.4049,292.2435,57.62099,55.61379
1360059,317.3386,292.2903,57.77916,55.61806
1360076,319.4506,292.2831,57.95035,55.61741
1360089,321.8651,292.1305,58.14408,55.60346
1360110,323.9888,292.0007,58.31275,55.59159
1360123,326.5998,291.7792,58.51794,55.57132
1360144,328.8327,291.5907,58.69153,55.55405
1360156,331.338,291.3703,58.88426,55.53384
1360173,334.1322,291.1664,59.09671,55.51512
1360190,336.9023,290.9607,59.30477,55.49622
1360209,339.3111,290.794,59.48365,55.48089
1360226,341.9031,290.6455,59.67403,55.46723
1360243,344.1314,290.4638,59.83599,55.45049
1360260,346.3211,290.2817,59.99362,55.43371
1360276,348.2161,290.183,60.12884,55.4246
1360292,350.151,289.9718,60.26576,55.40511
1360309,351.8357,289.7518,60.38406,55.38478
1360325,353.5453,289.5311,60.50323,55.36437
1360342,355.1554,289.3578,60.61467,55.34832
1360361,356.4341,289.3146,60.70263,55.34433
1360377,357.6604,289.3619,60.78653,55.34871
1360393,358.8304,289.3612,60.86618,55.34864
1360409,359.6674,289.1984,60.92291,55.33355
1360425,360.6757,289.0035,60.99099,55.31548
1360440,361.714,288.6628,61.06078,55.28385
1360460,362.6711,288.4113,61.12485,55.26047
1360477,363.7468,288.1371,61.19655,55.23495
1360493,364.8749,287.8708,61.2714,55.21013
1360510,366.0193,287.604,61.34696,55.18523
1360528,367.182,287.467,61.42336,55.17242
1360544,368.4383,287.2293,61.50549,55.15021
1360561,369.667,287.1122,61.58539,55.13925
1360577,371.0972,286.9377,61.67789,55.12291
1360593,372.4749,286.8419,61.76647,55.11394
1360611,373.8898,286.6809,61.85692,55.09884
1360628,375.0917,286.538,61.93333,55.08543
1360641,376.3819,286.5426,62.01493,55.08587
1360658,377.6145,286.4907,62.09248,55.081
1360675,378.9718,286.3979,62.17743,55.07228
1360691,380.2404,286.3428,62.25639,55.0671
1360708,381.5419,286.2006,62.33697,55.05375
1360725,382.7329,286.1224,62.41034,55.04639
1360741,383.9135,286.0402,62.4827,55.03866
1360758,384.9949,285.8001,62.54869,55.01606
1360775,386.0985,285.5328,62.61573,54.99087
1360792,387.2369,285.1093,62.68457,54.9509
1360809,388.4495,284.752,62.75753,54.91712
1360830,389.4247,284.308,62.81596,54.87506
1360844,390.5687,283.8378,62.8842,54.83041
1360860,391.7577,283.3983,62.9548,54.78859
1360878,392.8922,282.8553,63.02183,54.73682
1360894,394.2213,282.2584,63.09998,54.67974
1360913,395.6155,281.5645,63.18151,54.61318
1360929,397.0209,280.7767,63.26324,54.53735
1360945,398.5269,279.7996,63.3503,54.44291
1360962,400.3809,278.4552,63.45675,54.31226
1360982,402.255,277.1402,63.56357,54.18366
1360996,404.1931,275.5595,63.67319,54.028
1361012,406.7452,273.4156,63.81627,53.81501
1361029,409.3595,271.5048,63.96134,53.62333
1361047,411.9348,270.0055,64.10279,53.47171
1361061,415.0593,268.2894,64.27249,53.29681
1361080,417.6633,266.8002,64.41235,53.14387
1361096,420.5533,265.0064,64.56593,52.95819
1361113,422.5836,263.6137,64.67278,52.81292
1361129,424.7077,261.9227,64.78368,52.63522
1361145,426.5869,260.1945,64.88105,52.45211
1361162,428.3064,258.6382,64.96952,52.2859
1361178,429.8825,257.1129,65.0501,52.12178
1361194,431.2352,255.498,65.11888,51.9467
1361214,432.2415,254.2702,65.16982,51.81265
1361230,432.9302,252.8656,65.20457,51.65833
1361248,433.5247,251.4758,65.23448,51.50459
1361264,434.0284,250.0064,65.25978,51.34091
1361284,434.1021,248.7281,65.26348,51.19755
1361299,434.2693,247.377,65.27187,51.04507
1361313,434.1317,246.0092,65.26496,50.88965
1361333,433.9947,244.8617,65.25809,50.75848
1361348,433.7531,243.5051,65.24596,50.60244
1361365,433.3244,242.4087,65.22441,50.47557
1361382,433.002,241.3916,65.20818,50.35727
1361398,432.5709,240.4429,65.18645,50.24637
1361413,432.0397,239.5075,65.15962,50.13654
1361432,431.6586,238.8177,65.14034,50.05521
1361448,431.1479,238.0944,65.11446,49.96964
1361465,430.7437,237.4349,65.09393,49.89135
1361481,430.4361,236.9091,65.07829,49.82875
1361496,430.1267,236.4848,65.06255,49.77812
1361512,429.7537,236.1184,65.04354,49.73431
1361529,429.3886,235.7359,65.02491,49.68849
1361547,428.9278,235.3907,65.00135,49.64706
1361568,428.672,235.1415,64.98826,49.61712
1361579,428.3253,234.9074,64.97049,49.58895
1361597,428.0469,234.5475,64.95621,49.54558
1361614,427.8895,234.3037,64.94812,49.51616
1361628,427.8036,233.9466,64.94371,49.473
1361646,427.7083,233.6646,64.93881,49.43886
1361663,427.702,233.3711,64.93849,49.40328
1361680,427.7162,233.1377,64.93922,49.37496
1361696,427.7111,232.9566,64.93896,49.35295
1361714,427.6907,232.854,64.9379,49.34047
1361728,427.724,232.7535,64.93962,49.32826
1361745,427.6943,232.6231,64.9381,49.31238
1361763,427.6687,232.5015,64.93678,49.29757
1361780,427.6038,232.3589,64.93344,49.2802
1361799,427.5623,232.276,64.9313,49.27009
1361812,427.4467,232.1999,64.92536,49.2608
1361829,427.2874,232.1422,64.91716,49.25375
1361845,427.0599,232.089,64.90544,49.24726
1361864,426.8604,231.9982,64.89516,49.23617
1361879,426.6565,231.9085,64.88464,49.22522
1361895,426.3508,231.7764,64.86885,49.20906
1361913,426.1411,231.663,64.85801,49.1952
1361930,425.8976,231.4755,64.84541,49.17225
