Time Stamp(ms),Intersection,,Angle,
,x,y,x,y
1048505,313.1939,242.2603,57.43843,50.45834
1048545,313.0769,241.9476,57.42872,50.422
1048583,312.8088,241.9351,57.40644,50.42055
1048609,312.6818,242.0207,57.39589,50.43051
1048645,313.0746,242.1091,57.42853,50.44078
1048676,313.4728,241.5245,57.46156,50.37275
1048710,314.073,239.9097,57.51123,50.18383
1048742,314.535,238.6057,57.54938,50.03017
1048775,314.7326,237.5096,57.56567,49.90024
1048811,314.7001,236.9595,57.56299,49.83476
1048845,314.0034,237.2658,57.50549,49.87124
1048879,312.3875,239.2915,57.37139,50.1111
1048917,310.094,241.3869,57.17937,50.35671
1048948,308.0919,241.9801,57.01011,50.42579
1048978,306.611,241.1203,56.8839,50.3256
1049013,305.9506,239.2926,56.82734,50.11123
1049051,305.2671,238.414,56.76862,50.00749
1049087,304.3746,237.971,56.69168,49.95501
1049118,303.2045,237.6316,56.59032,49.91473
1049153,301.642,237.6636,56.45412,49.91853
1049187,299.338,237.9523,56.25148,49.95279
1049222,296.0981,238.8092,55.96287,50.0542
1049256,290.5706,240.1156,55.46033,50.208
1049288,283.5155,241.1426,54.79976,50.32821
1049323,276.2962,241.7881,54.10069,50.40345
1049355,267.7288,242.8847,53.23936,50.53073
1049390,259.2819,244.6326,52.3548,50.73219
1049425,251.3908,245.5873,51.49515,50.84151
1049459,243.4907,246.3445,50.60078,50.92785
1049497,237.3686,247.7271,49.88347,51.08467
1049531,231.6008,249.2161,49.18759,51.25238
1049559,225.9386,250.7631,48.48486,51.42534
1049593,220.8544,251.7987,47.83683,51.5404
1049631,216.2483,252.6733,47.23542,51.63712
1049664,212.0989,254.201,46.68168,51.80507
1049695,208.4133,255.4206,46.18013,51.93827
1049731,205.5133,256.0533,45.77893,52.00706
1049765,202.9832,256.3544,45.42414,52.03971
1049800,200.4153,256.4232,45.05943,52.04717
1049836,198.1276,256.6567,44.73053,52.07246
1049872,195.656,257.2416,44.37096,52.13568
1049903,193.224,258.1006,44.01278,52.2282
1049933,190.98,258.5837,43.67841,52.28006
1049972,188.7923,258.6809,43.34879,52.29047
1050003,186.9274,258.7122,43.06496,52.29383
1050039,185.2911,258.7764,42.81373,52.30071
1050072,184.2423,259.1609,42.65163,52.34186
1050101,183.2475,259.6219,42.49707,52.3911
1050135,182.6736,260.0819,42.40758,52.44013
1050175,182.4005,260.4008,42.36489,52.47406
1050208,182.5172,260.4758,42.38313,52.48203
1050239,182.7061,260.5386,42.41265,52.48869
1050274,183.1728,260.5538,42.48545,52.4903
1050309,183.4821,260.7733,42.5336,52.51361
1050343,184.0665,261.3706,42.62436,52.5769
1050373,184.8886,261.8661,42.75162,52.62926
1050408,186.0277,262.1458,42.92708,52.65876
1050443,187.2584,262.2434,43.11553,52.66904
1050479,188.4131,262.1053,43.29129,52.65449
1050512,189.9731,262.1179,43.52716,52.65581
1050546,191.6821,261.9904,43.78343,52.64237
1050579,193.3792,261.8763,44.03577,52.63032
1050613,195.0105,262.1765,44.27632,52.66198
1050644,196.4452,262.6263,44.48626,52.70933
1050680,197.6325,262.9302,44.65887,52.74127
1050713,198.661,263.1749,44.80756,52.76695
1050747,199.729,263.5287,44.96116,52.80403
1050782,200.5673,263.7917,45.08114,52.83154
1050814,201.5531,263.9407,45.2216,52.84712
1050847,202.9528,263.8017,45.41986,52.83259
1050879,205.4309,263.5691,45.76745,52.80825
1050914,211.4039,263.6639,46.58781,52.81818
1050956,216.5934,263.8977,47.28096,52.84262
1050985,225.1677,264.0884,48.38766,52.86255
1051020,234.6035,263.9317,49.55233,52.84618
1051054,247.0809,263.3287,51.01152,52.78308
1051089,261.3254,262.6873,52.57211,52.71575
1051122,277.3357,262.4164,54.20282,52.68726
1051157,292.5121,262.3856,55.63831,52.68401
1051198,302.8755,262.777,56.56173,52.72518
1051227,312.7413,263.1671,57.40083,52.76612
1051263,320.2329,263.3217,58.01335,52.78234
1051294,326.947,263.2682,58.54504,52.77674
1051330,332.1075,262.9443,58.94304,52.74276
1051367,336.0929,262.6958,59.24424,52.71665
1051398,339.1849,262.6207,59.47432,52.70874
1051432,341.7037,263.3063,59.65946,52.78073
1051464,343.8733,264.3737,59.81731,52.89232
1051502,345.85,265.0408,59.95983,52.96177
1051533,348.5031,265.8044,60.14922,53.041
1051566,351.3983,266.5303,60.35343,53.11604
1051598,354.7818,266.9842,60.58888,53.16283
1051642,357.2278,267.4128,60.75698,53.20691
1051668,360.2275,267.8671,60.96076,53.25355
1051707,363.3287,268.1253,61.16872,53.28001
1051740,366.2878,268.3806,61.36464,53.30614
1051771,369.5069,268.2976,61.575,53.29765
1051805,372.8144,267.8026,61.78822,53.24693
1051839,376.1083,266.7891,61.99767,53.14273
1051877,379.5839,265.8348,62.21558,53.04414
1051910,382.754,265.0928,62.41164,52.96717
1051941,385.6956,264.2538,62.59129,52.87981
1051977,388.1186,263.2269,62.73766,52.7724
1052012,390.0406,262.1842,62.85274,52.6628
1052047,391.3367,260.9517,62.92984,52.53252
1052078,392.3763,259.4672,62.99139,52.37459
1052113,393.4175,257.7393,63.05277,52.18933
1052147,394.4565,255.4216,63.11377,51.93838
1052180,395.9435,251.7244,63.20063,51.53217
1052217,397.1393,248.1963,63.2701,51.13766
1052250,398.0539,244.2473,63.32301,50.68793
1052283,398.4568,239.5392,63.34626,50.14026
1052317,397.9583,235.2588,63.31749,49.63122
1052350,397.7378,229.7821,63.30475,48.96402
1052389,399.0399,224.0845,63.37984,48.25043
1052419,400.6414,220.5865,63.47165,47.80223
1052452,401.78,217.0672,63.53658,47.34335
1052485,402.0149,213.5622,63.54993,46.87827
1052518,401.2629,210.4087,63.50713,46.45282
1052551,400.1721,206.8834,63.44481,45.9692
1052587,398.8281,203.8295,63.36765,45.54331
1052626,397.4173,201.0412,63.28621,45.14875
1052659,395.8706,198.8718,63.19638,44.83794
1052692,394.1871,196.7268,63.09798,44.52729
1052726,392.5869,195.0587,63.00383,44.28339
1052759,390.8546,193.8099,62.90121,44.09948
1052792,389.0728,192.4008,62.7949,43.89055
1052833,387.5517,191.4127,62.70354,43.74318
1052863,386.4658,190.8206,62.63797,43.65451
1052895,385.7638,190.4654,62.59543,43.60119
1052930,385.3367,190.4109,62.56948,43.59302
1052967,385.339,190.253,62.56963,43.56927
1052997,385.5389,190.426,62.58177,43.59528
1053032,385.8693,190.7833,62.60183,43.64891
1053066,386.2214,191.267,62.62318,43.72139
1053100,386.5862,192.0408,62.64526,43.83695
1053132,386.7157,193.1044,62.65309,43.99506
1053166,386.7585,194.0265,62.65567,44.13145
1053205,386.848,194.8465,62.66109,44.25223
1053233,386.8791,195.8944,62.66296,44.40584
1053272,386.883,197.1379,62.6632,44.58709
1053303,386.8225,198.3308,62.65955,44.7599
1053336,386.9076,199.4201,62.66468,44.91682
1053371,386.9514,200.6265,62.66733,45.0896
1053406,386.8685,201.9482,62.66232,45.2777
1053437,386.7015,203.2669,62.65223,45.46415
1053471,386.5694,204.7602,62.64424,45.67379
1053506,386.2273,206.9452,62.62354,45.97776
1053539,385.77,209.7882,62.5958,46.36831
1053577,385.104,213.361,62.55533,46.85132
1053614,384.0091,217.8624,62.48855,47.44773
1053645,382.6056,221.9829,62.40251,47.98209
1053684,380.9433,224.5757,62.29997,48.31276
1053715,377.9794,226.9763,62.11537,48.61513
1053753,374.113,228.3214,61.87114,48.78299
1053786,369.2721,229.5331,61.55976,48.93325
1053817,364.1296,231.4466,61.22199,49.16872
1053852,358.1093,233.444,60.81713,49.41214
1053889,352.0958,235.5746,60.40225,49.66915
1053921,345.7967,237.7747,59.95601,49.93172
1053953,339.8721,239.0616,59.52503,50.08399
1053991,334.1966,239.9344,59.10158,50.18673
1054020,328.5805,240.5384,58.67201,50.25756
1054055,323.2531,240.9003,58.2545,50.2999
1054089,318.2347,240.8193,57.85199,50.29042
1054122,313.6328,240.8997,57.47482,50.29984
1054156,309.9377,240.8255,57.16621,50.29115
1054194,306.4309,240.9074,56.8685,50.30072
1054228,303.7026,240.6954,56.63354,50.27594
1054256,301.5872,240.3238,56.44933,50.23241
1054292,299.8951,239.9601,56.30069,50.18974
1054326,298.6294,239.7606,56.18874,50.1663
1054359,297.4418,239.6289,56.0831,50.15081
1054396,296.8367,239.83,56.02905,50.17447
1054430,296.2755,239.9662,55.97879,50.19046
1054466,295.7971,239.775,55.93583,50.168
1054495,295.4078,239.5723,55.90081,50.14416
1054532,294.9888,239.2593,55.86305,50.1073
1054566,294.4316,238.9471,55.81271,50.07049
1054601,293.7298,238.2532,55.74913,49.98846
1054633,291.8356,235.815,55.57648,49.69797
1054679,290.2476,234.1199,55.43056,49.49396
1054705,287.2996,231.7182,55.15678,49.20195
1054743,284.5017,230.2299,54.89341,49.01926
1054780,281.4067,228.739,54.59801,48.83488
1054810,278.6528,227.5078,54.33152,48.6816
1054843,275.8467,225.9854,54.05637,48.49076
1054878,273.3453,224.6689,53.80799,48.32456
1054907,270.8429,223.2433,53.55653,48.14336
1054942,268.3864,221.5989,53.30674,47.93275
1054991,266.1992,220.0375,53.08183,47.73117
1055018,264.0424,218.6242,52.85775,47.54735
1055046,261.9027,217.5376,52.63311,47.40516
1055077,259.7034,216.4914,52.3998,47.26749
1055111,257.2255,215.0396,52.13394,47.07529
1055148,254.4926,213.6914,51.837,46.89555
1055181,251.2027,212.1316,51.47426,46.68608
1055217,247.7253,210.6845,51.08447,46.49029
1055253,244.3623,209.0236,50.70116,46.26381
1055283,240.7003,206.9015,50.2765,45.97171
1055325,237.7569,205.146,49.92961,45.72771
1055352,234.3877,203.097,49.5263,45.4402
1055387,231.1491,201.0302,49.13225,45.14719
1055423,227.5606,198.6457,48.68819,44.80535
1055463,224.4186,197.4486,48.29284,44.6322
1055491,220.1792,196.3744,47.74953,44.47594
1055524,215.2179,195.3987,47.09897,44.33327
1055558,210.6174,194.6439,46.48117,44.22243
1055591,205.3014,193.8808,45.7494,44.10995
1055627,200.6478,193.4973,45.09264,44.05325
1055661,195.8589,193.5003,44.40065,44.0537
1055697,192.0802,193.3565,43.84282,44.03241
1055725,188.3937,192.8993,43.28835,43.96463
1055763,184.9237,192.1887,42.75705,43.85897
1055796,181.9327,191.3395,42.29165,43.73223
1055832,179.3965,190.4653,41.89155,43.60119
1055866,177.078,189.903,41.52137,43.51659
1055897,175.248,189.5543,41.22614,43.46401
1055934,173.872,189.2713,41.00239,43.42127
1055965,172.8371,189.2168,40.83309,43.41302
1055997,172.0085,189.1948,40.69693,43.4097
1056031,171.4944,189.4813,40.61216,43.453
1056066,171.0742,189.499,40.54273,43.45566
1056101,170.7414,189.2289,40.48761,43.41486
1056130,170.3224,189.0433,40.41811,43.38679
1056165,169.9269,189.1126,40.35238,43.39727
1056204,169.3997,189.4698,40.26455,43.45125
1056239,169.0445,189.6801,40.20525,43.483
1056264,168.7405,190.1787,40.15442,43.5581
1056298,168.5695,190.5463,40.12577,43.61335
1056335,168.6183,190.8851,40.13395,43.66418
1056370,168.7357,191.0871,40.1536,43.69446
1056403,169.0446,191.1896,40.20527,43.70979
1056437,169.4313,191.3552,40.26982,43.73458
1056471,169.7853,191.6292,40.32882,43.77553
1056508,169.645,191.6845,40.30545,43.78378
1056535,169.7327,191.9487,40.32006,43.8232
1056569,169.6545,192.6744,40.30703,43.93124
1056604,169.5589,193.1136,40.2911,43.99643
1056636,169.3441,193.4802,40.25528,44.05072
1056678,169.0626,193.5894,40.20827,44.06688
1056712,168.7897,193.7799,40.16264,44.09504
1056743,168.5101,193.7704,40.11583,44.09364
1056774,168.2207,193.8068,40.0673,44.09901
1056806,167.994,194.0512,40.02926,44.13511
1056846,167.9141,194.34,40.01583,44.17769
1056879,167.879,194.9245,40.00993,44.26369
1056907,167.9988,195.4147,40.03006,44.33562
1056946,168.1761,195.7437,40.05982,44.38379
1056979,168.4129,195.9718,40.09954,44.41716
1057011,168.7391,196.2973,40.15417,44.46469
1057043,168.9286,196.5306,40.18587,44.49871
1057077,169.251,197.097,40.23973,44.58114
1057115,169.5718,197.5794,40.29325,44.65117
1057146,169.9843,198.2842,40.36192,44.75318
1057178,170.4753,198.9172,40.44349,44.84449
1057211,171.1458,199.6116,40.55457,44.94432
1057249,171.815,200.3909,40.66505,45.05594
1057282,172.4384,201.0275,40.76765,45.14679
1057318,172.8615,201.6211,40.8371,45.23127
1057346,173.1979,202.0383,40.89222,45.29049
1057379,173.4128,202.278,40.92738,45.32445
1057415,173.5709,202.6551,40.95323,45.3778
1057449,173.578,202.7701,40.95438,45.39405
1057481,173.4884,203.147,40.93974,45.44725
1057518,173.2459,203.6409,40.90007,45.5168
1057551,172.8938,203.9364,40.8424,45.55833
1057586,172.519,204.2139,40.78089,45.59728
1057617,172.0908,204.2873,40.71048,45.60758
1057649,171.4958,204.241,40.61239,45.60108
1057686,170.8934,204.1503,40.51279,45.58836
1057718,170.203,204.1179,40.39828,45.58381
1057751,169.7993,204.2498,40.33113,45.60232
1057793,169.3416,204.3222,40.25486,45.61246
1057819,168.8432,204.3338,40.1716,45.61409
1057855,168.3731,204.217,40.09288,45.59772
1057890,168.1544,204.1505,40.05619,45.58839
1057919,167.8261,204.2569,40.00105,45.60331
1057953,167.6431,204.2738,39.97026,45.60568
1057991,167.4109,204.304,39.93117,45.60991
1058019,167.1833,204.223,39.89281,45.59855
1058054,167.0728,204.4296,39.87416,45.62752
1058087,166.9356,204.4545,39.85102,45.631
1058122,166.8291,204.5259,39.83302,45.64101
1058154,166.7229,204.6487,39.81508,45.6582
1058194,166.7188,204.8998,39.81438,45.69331
1058230,166.8808,205.297,39.84176,45.74878
1058259,167.3861,205.6947,39.92699,45.80421
1058291,168.2693,206.1978,40.07546,45.87416
1058322,170.0897,206.5745,40.37946,45.92642
1058357,175.1982,207.1194,41.21806,46.00184
1058393,183.5353,207.7044,42.54187,46.08258
1058426,198.823,209.326,44.83091,46.30518
1058463,212.7308,211.3939,46.76675,46.58645
1058496,227.343,213.7775,48.66101,46.90707
1058531,242.3444,216.0914,50.46811,47.21468
