Time Stamp(ms),Intersection,,Angle,
,x,y,x,y
1270043,320.1482,235.825,58.00654,49.69917
1270060,320.5967,235.3794,58.04257,49.64571
1270077,321.1347,235.1102,58.0857,49.61335
1270095,321.5786,234.9321,58.1212,49.59192
1270112,321.9834,234.7998,58.15352,49.57599
1270127,322.2764,234.6558,58.17687,49.55864
1270143,322.4542,234.5941,58.19102,49.5512
1270159,322.6042,234.4352,58.20296,49.53203
1270175,322.7604,234.0539,58.21538,49.48598
1270193,322.9526,233.6706,58.23065,49.43959
1270210,323.1674,233.1311,58.2477,49.37416
1270227,323.4633,232.5175,58.27116,49.29951
1270246,323.7423,231.9489,58.29325,49.23015
1270262,324.1207,231.4426,58.32317,49.16822
1270277,324.4941,230.8671,58.35265,49.09764
1270293,325.0057,230.2975,58.39294,49.02758
1270310,325.5128,229.6723,58.4328,48.95046
1270327,326.0502,228.9841,58.47495,48.86529
1270344,326.7382,228.3204,58.52874,48.78287
1270360,327.5277,227.6851,58.59029,48.70373
1270377,328.2451,227.2259,58.64602,48.64637
1270393,329.0488,226.9266,58.70824,48.60891
1270410,329.7498,226.798,58.76233,48.5928
1270429,330.2322,226.9925,58.79946,48.61717
1270447,330.4391,227.2565,58.81535,48.65019
1270466,330.3947,227.7116,58.81194,48.70704
1270479,330.2537,228.1787,58.80111,48.76524
1270495,330.0491,228.5642,58.78538,48.81317
1270511,329.7453,228.9681,58.76199,48.8633
1270527,329.3062,229.2994,58.72812,48.90435
1270544,328.8512,229.6584,58.69296,48.94875
1270560,328.3329,230.0161,58.65282,48.9929
1270576,327.6865,230.4498,58.60264,49.04634
1270596,326.9576,230.8589,58.54587,49.09663
1270613,326.2126,231.1565,58.48766,49.13316
1270628,325.4941,231.3913,58.43134,49.16194
1270644,324.6069,231.6465,58.36153,49.19319
1270661,323.77,231.7286,58.29544,49.20322
1270678,322.9447,231.7868,58.23002,49.21035
1270695,322.0202,231.8156,58.15645,49.21386
1270714,321.2807,231.8192,58.09738,49.2143
1270729,320.6237,231.8029,58.04474,49.21231
1270745,319.8683,231.7558,57.98402,49.20655
1270763,319.2412,231.6436,57.93345,49.19282
1270778,318.6679,231.5411,57.8871,49.18028
1270795,318.1347,231.473,57.84388,49.17194
1270813,317.7217,231.3613,57.81034,49.15826
1270830,317.3443,231.2678,57.77963,49.1468
1270847,317.0157,231.2503,57.75284,49.14466
1270863,316.7799,231.2974,57.7336,49.15044
1270880,316.5862,231.3636,57.71778,49.15854
1270897,316.3839,231.7172,57.70124,49.20183
1270915,316.3448,232.194,57.69804,49.26008
1270933,316.2299,232.512,57.68864,49.29885
1270949,316.1724,232.8498,57.68394,49.33997
1270963,316.2373,233.247,57.68924,49.38823
1270978,316.2374,233.7151,57.68926,49.44498
1270997,316.1556,234.3606,57.68256,49.52303
1271014,316.0795,235.091,57.67632,49.61105
1271031,316.0099,235.7699,57.67063,49.69257
1271047,315.9393,236.6572,57.66484,49.7987
1271064,315.8359,237.4542,57.65636,49.89365
1271080,315.7126,238.3018,57.64625,49.99421
1271096,315.5894,239.6688,57.63614,50.15551
1271117,315.6614,240.3936,57.64205,50.2406
1271131,315.5414,241.3691,57.6322,50.35464
1271147,315.4927,242.5904,57.6282,50.49664
1271167,315.507,243.2816,57.62938,50.57663
1271181,315.4417,244.3105,57.62401,50.6952
1271199,315.4259,244.8824,57.62271,50.76085
1271215,315.3446,245.6718,57.61603,50.85117
1271233,315.2992,246.5113,57.6123,50.94682
1271249,315.2247,247.44,57.60618,51.0522
1271265,315.0009,248.3163,57.58777,51.15119
1271280,314.7993,249.0608,57.57116,51.23495
1271296,314.3969,249.7644,57.53798,51.31384
1271318,313.9095,250.406,57.49771,51.38554
1271333,313.4926,250.8426,57.4632,51.4342
1271348,312.9316,251.4492,57.41665,51.50163
1271366,312.4886,252.0277,57.37981,51.56576
1271383,312.1321,252.7915,57.35011,51.65016
1271402,311.9205,253.792,57.33245,51.76023
1271415,311.7808,254.6702,57.32079,51.85641
1271431,311.6836,255.5159,57.31267,51.94864
1271447,311.7924,256.2939,57.32176,52.03316
1271464,311.8386,257.179,57.32562,52.12892
1271482,311.9983,257.9869,57.33894,52.21597
1271498,312.2851,258.9462,57.36286,52.3189
1271513,312.5807,259.8929,57.38747,52.42
1271529,313.0258,261.0192,57.42447,52.53968
1271550,313.3725,261.8914,57.45324,52.63192
1271565,313.7289,262.9363,57.48278,52.74191
1271581,314.2243,264.0992,57.52374,52.86368
1271597,314.6021,265.0482,57.55492,52.96254
1271614,315.0674,266.3358,57.59324,53.09595
1271633,315.3843,267.3084,57.6193,53.19619
1271649,315.7776,268.546,57.65158,53.32305
1271673,316.0004,269.3481,57.66985,53.40487
1271686,316.2226,270.2729,57.68804,53.49883
1271699,316.4328,271.0715,57.70524,53.57962
1271713,316.6685,272.1724,57.7245,53.6905
1271732,316.8022,273.2013,57.73542,53.79359
1271749,316.8766,274.017,57.74149,53.87498
1271764,316.9873,274.9223,57.75053,53.96492
1271782,316.9991,275.6764,57.7515,54.03955
1271797,317.0157,276.313,57.75284,54.10235
1271814,316.9843,277.0259,57.75028,54.17244
1271830,316.9109,277.6388,57.74429,54.23252
1271847,316.692,278.1823,57.72643,54.28564
1271863,316.3035,278.6623,57.69466,54.33245
1271880,315.581,279.3346,57.63545,54.39782
1271896,315.0179,279.8176,57.58917,54.44466
1271912,314.5159,280.4664,57.54781,54.50742
1271932,313.9762,280.9804,57.50323,54.55699
1271949,313.4731,281.223,57.46158,54.58035
1271966,313.0037,281.3344,57.42264,54.59107
1271982,312.6684,281.5936,57.39477,54.61598
1271999,312.4154,281.9064,57.37371,54.646
1272016,312.1876,282.3908,57.35474,54.69241
1272030,312.0706,282.7902,57.34498,54.73059
1272048,311.9193,283.278,57.33236,54.77713
1272065,311.7496,283.6304,57.31818,54.81069
1272084,311.5698,283.896,57.30316,54.83595
1272099,311.4834,284.1707,57.29593,54.86202
1272113,311.3948,284.3329,57.28852,54.87741
1272129,311.3058,284.6249,57.28108,54.90509
1272147,311.1978,284.7443,57.27204,54.91639
1272166,311.049,284.8855,57.25957,54.92974
1272180,310.8207,284.9487,57.24043,54.93572
1272196,310.4846,284.9114,57.21221,54.9322
1272213,310.1882,284.8713,57.1873,54.92841
1272229,309.6352,284.7918,57.14072,54.92088
1272248,308.7959,284.7598,57.0698,54.91786
1272264,307.5984,284.582,56.96814,54.90102
1272282,306.454,284.5878,56.87047,54.90157
1272298,305.3682,284.5344,56.77732,54.89651
1272314,304.0328,284.5534,56.66213,54.89831
1272330,302.8299,284.5125,56.55776,54.89444
1272347,301.7286,284.4497,56.4617,54.88849
1272364,300.3933,284.4556,56.34457,54.88904
1272384,299.3541,284.3659,56.25291,54.88055
1272398,298.4572,284.2906,56.17345,54.8734
1272413,297.5593,284.1788,56.09357,54.8628
1272430,296.8198,284.1832,56.02754,54.86321
1272446,296.2437,284.2454,55.97593,54.86912
1272464,295.7727,284.2855,55.93364,54.87292
1272481,295.5088,284.3266,55.9099,54.87682
1272498,295.1642,284.2905,55.87886,54.87339
1272514,294.7033,284.2545,55.83728,54.86998
1272530,294.1062,284.1584,55.78326,54.86086
1272547,293.389,284.1651,55.71818,54.8615
1272565,292.5277,284.0887,55.63974,54.85425
1272581,291.236,284.1736,55.52151,54.8623
1272597,289.8769,284.0689,55.39634,54.85237
1272614,288.1284,284.014,55.23414,54.84715
1272631,286.0291,283.9206,55.03762,54.83828
1272648,284.2376,283.7863,54.86837,54.82552
1272665,282.1215,283.7344,54.66663,54.82058
1272681,280.2349,283.7321,54.48504,54.82036
1272698,278.4518,283.601,54.31193,54.80789
1272714,276.5417,283.4763,54.12486,54.79602
1272731,274.7939,283.3167,53.95219,54.78082
1272748,273.0898,283.0477,53.78244,54.75518
1272765,271.5692,282.7256,53.62982,54.72443
1272781,270.2615,282.4812,53.49767,54.70106
1272797,269.1147,282.0908,53.3811,54.66368
1272815,267.9429,281.78,53.26132,54.63387
1272832,266.9917,281.4838,53.1636,54.60543
1272850,266.2747,281.2917,53.08964,54.58696
1272866,265.4251,281.0262,53.00167,54.5614
1272886,264.8807,280.7127,52.94512,54.53119
1272900,264.3369,280.4444,52.88847,54.50528
1272918,263.8035,280.1642,52.83277,54.47821
1272934,263.3449,279.9377,52.78477,54.45629
1272952,262.9447,279.6995,52.74279,54.43322
1272969,262.561,279.5794,52.70247,54.42157
1272984,261.7698,279.4282,52.61908,54.40691
1273005,260.9187,279.2314,52.52903,54.38779
1273018,259.8976,279.1877,52.42051,54.38355
1273036,258.7797,279.0446,52.30107,54.36965
1273055,257.7155,278.861,52.18676,54.35178
1273072,256.707,278.6336,52.07791,54.32965
1273087,255.7458,278.3751,51.97365,54.30445
1273103,254.695,277.8636,51.85912,54.25451
1273118,253.6433,277.4189,51.7439,54.21098
1273135,252.6181,276.9041,51.63103,54.16048
1273152,251.7287,276.3829,51.53265,54.10923
1273169,250.9198,275.783,51.44279,54.05008
1273186,250.171,275.0909,51.3593,53.98164
1273201,249.3827,274.4388,51.27107,53.91694
1273218,248.7032,273.8876,51.19476,53.86209
1273235,248.1483,273.0971,51.13224,53.78318
1273253,247.4844,272.2381,51.05723,53.6971
1273270,247.0033,271.4084,51.00271,53.61361
1273286,246.4109,270.4182,50.93541,53.51355
1273303,245.821,269.4564,50.86819,53.4159
1273319,245.1931,268.5188,50.79644,53.32027
1273335,244.5977,267.5872,50.7282,53.22483
1273352,244.0101,266.6178,50.66064,53.12506
1273370,243.3568,265.8379,50.58532,53.04446
1273386,242.5641,265.0249,50.49359,52.96011
1273403,241.6439,264.1159,50.38666,52.86542
1273418,240.8969,263.1801,50.2995,52.76749
1273435,240.1066,262.1653,50.20695,52.66081
1273452,239.2261,261.0779,50.10339,52.54591
1273469,238.5578,260.0154,50.0245,52.43305
1273486,237.9269,258.8589,49.94978,52.30955
1273502,237.2651,257.5089,49.87115,52.1645
1273518,236.8489,256.1504,49.82158,52.01759
1273537,236.6492,254.8294,49.79775,51.8738
1273553,236.716,253.6911,49.80572,51.74916
1273571,236.7708,252.5819,49.81226,51.62703
1273587,236.8788,251.6346,49.82513,51.52221
1273603,237.0146,250.6471,49.84133,51.41242
1273620,237.1722,249.6895,49.8601,51.30545
1273636,237.3182,248.549,49.87747,51.17739
1273653,237.4492,247.5764,49.89306,51.06763
1273670,237.7947,246.5884,49.9341,50.95559
1273686,238.1815,245.6299,49.97996,50.84637
1273704,238.6209,244.6765,50.03196,50.73724
1273719,239.177,243.7834,50.0976,50.63453
1273736,239.5246,242.8355,50.13855,50.52504
1273752,239.7587,241.9621,50.16608,50.42369
1273769,239.8248,241.1101,50.17385,50.32441
1273785,239.9031,240.3065,50.18304,50.23039
1273801,239.9395,239.4678,50.18732,50.13186
1273818,239.9672,238.5667,50.19057,50.02555
1273837,240.0441,237.5828,50.1996,49.90893
1273854,240.0712,236.6459,50.20279,49.79736
1273871,240.1172,235.7622,50.20819,49.69165
1273888,240.1848,234.9059,50.21611,49.58876
1273903,240.298,234.1405,50.22939,49.49644
1273918,240.4111,233.506,50.24265,49.41965
1273936,240.5498,232.8034,50.25889,49.33432
1273953,240.7295,232.0121,50.27992,49.23787
1273971,240.9002,231.4201,50.29988,49.16547
1273986,241.0956,230.828,50.32271,49.09284
1274003,241.3275,230.2604,50.34978,49.02301
1274020,241.6157,229.8084,50.38338,48.96726
1274036,242.0723,229.3891,50.4365,48.91545
1274052,242.5627,228.7615,50.49342,48.83767
1274068,243.3183,227.9564,50.58087,48.73755
1274089,243.9082,227.2482,50.64891,48.64916
1274102,244.5827,226.6718,50.72646,48.57698
1274117,245.3924,225.9807,50.81924,48.49016
1274134,246.2063,225.2916,50.91211,48.40331
1274152,247.6003,224.3306,51.07033,48.28168
1274180,248.2652,223.9686,51.14542,48.23571
1274188,249.0046,223.4467,51.22864,48.1693
1274203,250.1073,222.9093,51.35218,48.10072
1274220,251.2107,222.4068,51.47515,48.03644
1274237,252.3429,222.0576,51.60063,47.99167
1274253,253.731,221.642,51.75354,47.9383
1274272,254.8784,221.3507,51.87915,47.90081
1274288,256.1838,221.0326,52.02121,47.85982
1274305,257.6252,220.6974,52.17704,47.81656
1274320,259.0439,220.5066,52.32935,47.79189
1274338,260.4932,220.3475,52.48387,47.77132
1274353,261.9924,220.2674,52.64258,47.76095
1274371,263.6802,220.2692,52.81988,47.76119
1274388,265.2873,220.5085,52.98737,47.79214
1274404,266.9591,220.8008,53.16024,47.82992
1274421,268.9785,221.4806,53.36721,47.91753
1274437,271.0827,222.0975,53.58075,47.99679
1274454,273.5876,223.0492,53.83218,48.11859
1274472,276.389,224.375,54.10984,48.28731
1274488,279.2762,225.2852,54.39215,48.4025
1274504,282.6807,226.1573,54.72013,48.51237
1274522,285.833,227.0092,55.01916,48.61925
1274539,288.9697,227.731,55.31235,48.70946
1274555,293.3816,228.7173,55.71751,48.83219
1274579,296.2634,229.4777,55.9777,48.9264
1274590,299.5226,230.2672,56.2678,49.02385
1274604,303.322,231.2106,56.60053,49.13979
1274622,306.6781,232.2342,56.88963,49.26498
1274640,310.0041,233.2957,57.17181,49.39413
1274655,313.7072,234.7923,57.48098,49.57508
1274674,316.7344,236.1476,57.72989,49.73781
1274689,320.3512,237.8156,58.02286,49.93658
1274708,323.4465,239.1825,58.26983,50.09826
1274724,326.1183,240.3844,58.48027,50.23951
1274739,328.8932,241.6661,58.69621,50.38925
1274756,332.4568,243.2567,58.96965,50.57375
1274783,334.4352,244.4608,59.1196,50.71247
1274797,336.1349,245.3443,59.24739,50.81374
1274808,337.9839,246.4421,59.38532,50.93896
1274824,339.6955,247.5769,59.51202,51.06769
1274839,341.3106,248.5191,59.6307,51.17403
1274855,343.1616,249.6202,59.76569,51.2977
1274873,344.9756,250.4972,59.89694,51.39571
1274890,346.5614,251.3335,60.01083,51.48879
1274907,348.2331,252.2883,60.13004,51.5946
1274924,349.7355,253.1219,60.23646,51.68657
1274945,351.2357,253.8565,60.34203,51.76731
1274957,352.6762,254.688,60.44276,51.85836
1274973,354.0721,255.5374,60.53978,51.95098
1274989,355.348,256.3307,60.62795,52.03715
1275006,356.7441,257.1624,60.72388,52.12713
1275025,357.8512,257.9921,60.79955,52.21653
1275041,358.9184,258.8064,60.87215,52.30393
1275056,360.0717,259.6495,60.95024,52.39405
1275074,361.1576,260.5217,61.02342,52.4869
1275089,362.2225,261.3275,61.09486,52.57233
1275106,363.2827,262.0857,61.16566,52.65242
1275122,364.3647,262.8953,61.23759,52.7376
1275139,365.5627,263.6213,61.31685,52.81372
1275157,366.5388,264.1563,61.38114,52.86964
1275173,367.7632,264.7148,61.4614,52.92785
1275191,368.8856,265.1556,61.53462,52.9737
1275207,370.1399,265.5007,61.61604,53.00952
1275225,371.5487,265.8199,61.70698,53.04259
1275241,372.879,266.1417,61.79236,53.07589
1275257,374.275,266.3278,61.88145,53.09512
1275277,375.8138,266.5234,61.97906,53.11532
1275292,377.1052,266.7112,62.06049,53.1347
1275307,378.5326,266.8009,62.15,53.14394
1275323,379.8857,266.9357,62.23435,53.15783
1275339,381.1316,267.1723,62.31161,53.18219
1275355,382.6387,267.412,62.40455,53.20684
1275373,383.8457,267.7504,62.47856,53.24158
1275388,385.034,268.0867,62.55107,53.27606
1275406,386.1681,268.3266,62.61995,53.30061
1275422,387.2236,268.6665,62.68377,53.33536
1275438,388.2281,268.8593,62.74424,53.35505
1275456,389.2287,269.0744,62.80424,53.37699
1275472,390.1584,269.1615,62.85976,53.38587
1275488,390.9899,269.2338,62.90925,53.39323
1275508,391.7758,269.2419,62.95587,53.39406
1275524,392.5669,269.2588,63.00264,53.39578
1275541,393.3973,269.198,63.05159,53.38959
1275557,394.0798,269.1412,63.09169,53.3838
1275571,394.8674,268.9738,63.13783,53.36673
1275589,395.5613,268.8854,63.17836,53.35771
1275606,396.3926,268.7893,63.22676,53.34791
1275624,397.1427,268.6974,63.27029,53.33852
1275642,397.8392,268.5832,63.31061,53.32685
1275658,398.51,268.4925,63.34932,53.31758
1275675,399.257,268.4238,63.39232,53.31056
1275693,399.9456,268.2734,63.43183,53.29517
1275711,400.5222,268.1792,63.46484,53.28553
1275725,401.0447,268.1056,63.49468,53.27799
1275741,401.5628,267.9264,63.52421,53.25963
1275758,401.9568,267.703,63.54663,53.23672
1275774,402.371,267.3718,63.57015,53.2027
1275793,402.5962,267.1008,63.58293,53.17483
1275808,402.7675,266.7928,63.59264,53.14311
1275825,402.775,266.2848,63.59306,53.09069
1275841,402.721,265.7587,63.59001,53.03626
1275860,402.6159,265.2652,63.58405,52.98508
1275875,402.3685,264.8244,63.57001,52.93926
1275892,402.1149,264.3096,63.55561,52.88563
1275910,401.764,263.7438,63.53566,52.82653
1275926,401.2784,263.2054,63.50801,52.77015
1275943,400.8295,262.6158,63.4824,52.70823
1275960,400.4218,262.1815,63.4591,52.66252
1275975,400.0105,261.7257,63.43555,52.61443
1275995,399.7007,261.2262,63.41779,52.56161
1276012,399.51,260.7825,63.40685,52.51458
1276026,399.3285,260.213,63.39642,52.45408
1276048,399.3232,259.8225,63.39612,52.4125
1276059,399.3142,259.31,63.3956,52.3578
1276078,399.3405,258.6919,63.39711,52.29166
1276097,399.4726,257.9818,63.4047,52.21542
1276112,399.6075,257.2715,63.41244,52.13891
1276129,399.7436,256.4824,63.42025,52.05358
1276146,399.8217,255.8121,63.42473,51.98086
1276160,399.8658,255.263,63.42726,51.9211
1276175,399.9385,254.596,63.43143,51.8483
1276194,399.9115,254.0779,63.42988,51.79159
1276215,399.8218,253.505,63.42474,51.72871
1276229,399.7344,253.07,63.41972,51.68085
1276243,399.5518,252.6378,63.40924,51.63321
1276260,399.2977,252.0577,63.39465,51.56908
1276275,398.7959,251.4965,63.3658,51.50688
1276294,398.3106,250.8605,63.33783,51.43619
1276310,397.5959,250.3882,63.29654,51.38356
1276326,396.866,249.9457,63.25425,51.33412
1276343,395.9953,249.5721,63.20365,51.2923
1276364,395.2321,249.3223,63.15914,51.2643
1276381,394.4391,249.1956,63.11275,51.25009
1276396,393.7938,249.038,63.07489,51.23239
1276411,393.0484,248.9145,63.03104,51.21851
1276428,392.4514,248.6164,62.99582,51.18499
1276444,391.8611,248.247,62.96092,51.14337
1276460,391.2466,248.0028,62.92449,51.11582
1276476,390.6056,247.7663,62.8864,51.0891
1276494,391.6929,248.2641,62.95095,51.1453
1276512,391.5251,248.3042,62.94101,51.14981
1276527,391.3005,248.3382,62.92769,51.15365
1276543,391.0028,248.3516,62.91002,51.15516
1276560,390.6275,248.3516,62.8877,51.15517
1276577,390.2271,248.3218,62.86386,51.15181
1276592,389.7432,248.3435,62.83499,51.15425
1276610,389.2744,248.3765,62.80697,51.15797
1276627,388.7089,248.3625,62.7731,51.15639
1276645,388.1824,248.325,62.74149,51.15216
1276660,387.659,248.1948,62.71,51.13749
1276676,387.1414,248.1535,62.6788,51.13283
1276693,386.6504,248.1106,62.64914,51.12799
1276709,386.1945,248.035,62.62154,51.11946
1276726,385.7837,248.0956,62.59664,51.12629
1276742,385.4665,248.1123,62.57737,51.12818
1276759,385.2146,248.1344,62.56206,51.13068
1276777,385.0955,248.246,62.55482,51.14326
1276793,385.1737,248.3925,62.55957,51.15977
1276809,385.2612,248.6136,62.5649,51.18467
1276827,385.4516,248.8442,62.57647,51.21061
1276843,385.7758,249.2064,62.59616,51.2513
1276860,386.2295,249.7009,62.62366,51.30673
1276887,386.7448,249.9787,62.65485,51.33781
1276899,387.0924,250.1827,62.67584,51.36061
1276912,387.6547,250.4279,62.70975,51.38799
1276928,388.2032,250.6178,62.74274,51.40916
1276946,388.7571,250.8047,62.77599,51.42998
1276962,389.3865,250.9924,62.81367,51.45087
1276978,389.9293,251.2841,62.8461,51.4833
1276994,390.5693,251.5339,62.88424,51.51103
1277013,391.064,251.824,62.91365,51.5432
1277030,391.5588,252.1545,62.94301,51.5798
1277047,392.0762,252.4524,62.97365,51.61273
1277066,392.5594,252.7366,63.0022,51.6441
1277078,393.004,253.0209,63.02843,51.67545
1277095,393.5278,253.4144,63.05926,51.71876
1277111,394.0919,253.7087,63.0924,51.75109
1277129,394.6348,254.0521,63.12421,51.78876
1277147,395.2026,254.4159,63.15742,51.8286
1277160,395.9274,254.7925,63.19969,51.86978
1277180,396.7865,255.2879,63.24964,51.92381
1277196,397.6651,255.7237,63.30054,51.97124
1277211,398.5217,256.2665,63.35,52.03018
1277226,399.7127,256.8857,63.41848,52.09723
1277249,400.9026,257.5663,63.48657,52.1707
1277265,402.056,258.2021,63.55227,52.2391
1277279,403.5394,258.9828,63.63631,52.32281
1277295,404.9832,259.6871,63.71764,52.39806
1277312,406.4792,260.3051,63.80142,52.46388
1277332,407.8616,260.7994,63.8784,52.51638
1277344,409.5017,261.5206,63.96919,52.59276
1277366,411.1643,262.1931,64.06062,52.66374
1277379,412.7815,262.9604,64.14898,52.74444
1277396,414.7556,263.8654,64.25609,52.83925
1277422,416.7472,264.9349,64.36331,52.95076
1277438,418.302,266.006,64.44644,53.06186
1277448,419.629,267.0341,64.51699,53.16797
1277461,421.1331,268.4503,64.59653,53.31326
1277478,422.5657,269.8816,64.67184,53.45913
1277497,423.9683,271.6284,64.74519,53.63579
1277521,425.4036,273.3583,64.81982,53.80928
1277531,426.4837,274.6161,64.87572,53.93454
1277546,427.9808,276.165,64.95281,54.08776
1277563,429.3975,277.4495,65.02536,54.21398
1277580,430.6725,278.6186,65.09032,54.32819
1277595,432.3152,280.0445,65.17354,54.46663
1277614,433.7134,281.2715,65.24397,54.58501
1277630,435.1778,282.3364,65.31733,54.6872
1277647,436.5812,283.3421,65.38725,54.78324
1277664,437.9955,284.2988,65.45734,54.87418
1277681,439.2144,285.1723,65.51746,54.95686
