Time Stamp(ms),Intersection,,Angle,
,x,y,x,y
1396715,326.6454,242.368,58.5215,50.47084
1396736,326.4785,242.7912,58.50846,50.5199
1396760,326.2192,243.1614,58.48818,50.56273
1396784,325.9102,243.2389,58.46398,50.5717
1396807,325.5351,243.3213,58.43456,50.58121
1396832,325.0542,243.1812,58.39676,50.56503
1396858,324.825,243.1337,58.37872,50.55954
1396878,324.7206,243.1965,58.3705,50.5668
1396906,324.6083,243.5249,58.36165,50.60472
1396928,324.4673,243.7242,58.35052,50.62771
1396954,324.4663,243.7004,58.35045,50.62496
1396977,324.4189,243.866,58.34671,50.64405
1397000,324.3249,244.1174,58.33929,50.673
1397031,324.2957,244.2113,58.33699,50.68379
1397048,324.426,244.1496,58.34727,50.6767
1397069,324.5015,244.107,58.35323,50.67179
1397094,324.4243,244.1057,58.34714,50.67165
1397117,324.205,243.9646,58.32983,50.6554
1397143,324.0894,243.5302,58.3207,50.60533
1397171,323.9775,243.2557,58.31185,50.57364
1397190,323.7704,243.0852,58.29548,50.55393
1397214,323.4783,242.9933,58.27235,50.5433
1397242,322.8767,242.85,58.22462,50.52671
1397267,322.2035,242.7887,58.17106,50.51962
1397287,321.0783,242.8709,58.08118,50.52913
1397308,319.7152,242.7971,57.97168,50.52059
1397332,317.7711,242.8222,57.81435,50.52349
1397356,315.9072,242.827,57.66221,50.52405
1397380,313.4159,243.0319,57.45684,50.54776
1397406,310.3329,243.5177,57.19946,50.60389
1397436,307.0651,244.0894,56.92269,50.66978
1397451,303.3333,244.5453,56.60151,50.72218
1397473,299.7942,244.7811,56.29179,50.74924
1397497,295.6066,245.0167,55.91871,50.77623
1397522,291.6678,245.2204,55.56111,50.79956
1397545,287.7945,245.3566,55.20301,50.81515
1397569,283.549,245.2029,54.80295,50.79756
1397594,279.1564,244.8828,54.38052,50.7609
1397620,274.6653,244.6057,53.93943,50.72911
1397640,270.0198,244.1132,53.47316,50.67251
1397665,263.7789,243.4618,52.8302,50.59744
1397694,260.4581,243.0141,52.48014,50.5457
1397714,255.6092,242.3792,51.95879,50.47214
1397738,251.1454,242.091,51.46789,50.43867
1397762,247.231,241.885,51.02853,50.41473
1397786,243.2507,241.9414,50.57306,50.42128
1397809,239.4394,242.1436,50.12852,50.44478
1397833,235.6392,242.5558,49.6769,50.49263
1397856,232.6508,243.0594,49.31575,50.55094
1397880,229.5728,243.4998,48.93816,50.60183
1397904,226.7725,243.9747,48.5896,50.65656
1397927,224.4431,244.1479,48.29594,50.67651
1397951,221.7217,244.1284,47.94854,50.67426
1397974,219.2455,244.2269,47.62832,50.68559
1397998,216.937,244.3607,47.32622,50.70097
1398022,214.8183,244.7855,47.04586,50.74974
1398046,213.114,245.2511,46.8182,50.80307
1398072,211.2895,245.8517,46.57232,50.8717
1398092,210.0368,246.4464,46.40219,50.93945
1398116,208.9789,247.328,46.25769,51.03952
1398141,208.2066,247.8888,46.15172,51.10295
1398164,207.8553,248.5714,46.10338,51.17992
1398189,207.812,249.3509,46.09742,51.26751
1398211,207.8177,250.1052,46.0982,51.35195
1398237,208.5634,250.901,46.20073,51.4407
1398258,209.4919,251.6886,46.32787,51.52819
1398281,210.8989,252.8434,46.51939,51.65589
1398306,212.5374,254.0896,46.74073,51.79287
1398330,214.5682,255.7517,47.01258,51.97429
1398354,217.8275,258.5234,47.44316,52.27359
1398376,221.6203,262.3405,47.9355,52.67926
1398400,226.6219,267.1136,48.57072,53.17615
1398426,231.137,270.9553,49.13077,53.56789
1398447,235.3589,274.4935,49.64324,53.92237
1398471,240.4626,278.45,50.24868,54.31176
1398494,245.9523,281.4083,50.88316,54.59817
1398519,251.88,284.4355,51.54941,54.88714
1398543,257.3798,287.1496,52.15059,55.14275
1398568,262.6555,289.4793,52.71241,55.35957
1398591,269.1494,292.2981,53.38463,55.61878
1398613,275.4945,294.4473,54.02158,55.81414
1398639,281.8614,296.3302,54.64169,55.98369
1398659,287.9194,298.263,55.21466,56.1562
1398684,295.0765,300.1852,55.87096,56.32625
1398708,301.7418,301.4839,56.46285,56.44029
1398731,308.0873,302.9893,57.00972,56.57162
1398756,314.9657,304.9916,57.58487,56.74491
1398779,321.3139,306.7115,58.10004,56.89249
1398803,328.3507,308.4152,58.6542,57.03754
1398829,334.2686,310.2,59.10702,57.18829
1398852,340.8047,312.2563,59.59361,57.36046
1398874,347.2384,314.2512,60.05921,57.52596
1398898,353.1254,315.7645,60.47404,57.65051
1398921,359.156,317.2945,60.88827,57.77557
1398945,364.4492,318.7997,61.2432,57.89776
1398969,370.4995,319.4961,61.6393,57.95402
1398993,375.6488,319.7033,61.96862,57.97073
1399017,380.0403,319.862,62.24397,57.98351
1399041,384.8588,320.0829,62.5404,58.00129
1399064,388.6657,319.9566,62.77051,57.99112
1399089,391.9415,319.5385,62.96568,57.95744
1399111,394.7513,319.1832,63.13103,57.92877
1399136,396.9777,318.4154,63.26073,57.86665
1399158,398.7705,317.4387,63.36433,57.78731
1399181,400.3482,316.3377,63.45489,57.69746
1399211,401.4227,315.3218,63.51623,57.61416
1399230,402.3593,314.4424,63.56949,57.54174
1399252,403.1044,313.146,63.61172,57.43445
1399276,403.6997,311.9706,63.64537,57.33664
1399298,404.375,310.6898,63.68344,57.22945
1399325,405.0278,309.583,63.72015,57.13631
1399348,405.6173,308.5125,63.75322,57.04579
1399373,406.2028,307.4619,63.78598,56.95651
1399394,406.8558,306.5762,63.82244,56.88092
1399418,407.6763,305.7074,63.86811,56.80647
1399444,408.5683,304.9802,63.91759,56.74393
1399467,409.3327,304.2944,63.95986,56.68475
1399492,410.3468,303.5206,64.01574,56.61776
1399512,411.3259,302.8411,64.06947,56.55873
1399537,412.3376,302.0226,64.12479,56.48739
1399560,413.1377,301.2874,64.16837,56.42308
1399581,414.1691,300.2691,64.22436,56.33364
1399608,415.2817,299.0181,64.28449,56.22318
1399630,416.4488,297.5722,64.3473,56.09472
1399655,417.8182,295.8676,64.42063,55.94217
1399680,419.2013,294.1924,64.49429,55.79107
1399700,420.7142,292.1283,64.57442,55.60326
1399726,422.186,290.011,64.65192,55.40873
1399748,423.5629,287.8177,64.72403,55.20517
1399771,425.0278,284.9742,64.80032,54.93814
1399800,425.6039,282.9526,64.83021,54.7461
1399819,426.2293,280.4468,64.86257,54.50552
1399844,426.4956,277.9811,64.87634,54.26599
1399869,426.2216,275.3276,64.86217,54.00507
1399891,425.7852,272.3614,64.83959,53.70948
1399913,424.8704,269.2763,64.79214,53.39757
1399937,423.6206,265.7847,64.72704,53.03895
1399962,422.0157,261.7639,64.64298,52.61846
1399991,421.0988,259.2696,64.59472,52.35349
1400012,419.9419,255.8302,64.53358,51.98283
1400034,419.0156,252.7728,64.48443,51.64809
1400060,418.2286,249.2564,64.44253,51.2569
1400085,417.6651,245.872,64.41245,50.87401
1400109,417.2475,242.5808,64.39011,50.49553
1400131,416.7618,239.3975,64.3641,50.12358
1400153,416.2918,236.5235,64.33887,49.78274
1400180,415.7213,233.6115,64.30819,49.43243
1400201,415.0833,230.9232,64.27379,49.10453
1400225,414.1943,228.2787,64.22572,48.77769
1400249,413.1034,225.836,64.1665,48.47195
1400274,411.69,223.1674,64.08941,48.13368
1400297,410.1218,220.6677,64.00336,47.81272
1400321,408.221,218.3335,63.89835,47.50938
1400346,406.2714,215.9699,63.78981,47.19862
1400371,404.4814,213.4526,63.68943,46.86359
1400396,402.646,211.1319,63.58575,46.55097
1400416,400.8865,208.8036,63.48565,46.23367
1400437,399.2604,206.5056,63.39251,45.91687
1400465,397.8022,204.2052,63.30847,45.59606
1400488,396.4482,201.9662,63.22999,45.28026
1400511,394.9544,199.8351,63.14291,44.97637
1400534,393.6837,197.8773,63.06842,44.69433
1400557,392.1574,195.4601,62.97845,44.34226
1400581,390.7125,193.1466,62.89276,44.00132
1400606,389.2428,190.8819,62.80508,43.66371
1400630,387.726,188.3775,62.71404,43.28589
1400652,386.2863,186.0086,62.62711,42.92414
1400675,384.6069,183.4638,62.52505,42.53075
1400699,383.2128,181.3427,62.4398,42.19902
1400722,381.3721,178.6707,62.32648,41.77613
1400751,380.0031,176.8431,62.24165,41.48361
1400774,378.6465,175.0112,62.15712,41.18775
1400798,377.24,172.8335,62.06896,40.83251
1400819,376.2623,171.3518,62.00739,40.58861
1400841,374.9368,169.5708,61.9235,40.29308
1400870,373.8768,168.0467,61.85609,40.03811
1400889,372.7893,166.5997,61.78661,39.79425
1400912,371.6016,164.8581,61.71038,39.49843
1400935,370.5107,163.2701,61.64002,39.22651
1400960,369.236,161.5476,61.55741,38.92913
1400985,367.9969,160.0153,61.47668,38.66248
1401008,366.9486,158.6879,61.40805,38.42987
1401031,365.5836,157.3798,61.31823,38.19917
1401054,364.3353,156.2944,61.23564,38.00663
1401078,362.8432,154.9922,61.13635,37.77428
1401100,361.5824,154.0356,61.05195,37.60266
1401125,360.1444,153.0278,60.95515,37.42102
1401153,358.7589,152.2154,60.86132,37.27393
1401170,357.5804,151.5231,60.78107,37.14813
1401195,356.5105,150.9598,60.70787,37.04547
1401218,355.5873,150.4787,60.64443,36.95757
1401241,354.542,150.0301,60.5723,36.87542
1401270,353.9168,149.6296,60.52901,36.80193
1401288,353.2336,149.1402,60.48157,36.71193
1401314,352.4317,148.5005,60.4257,36.59398
1401335,351.5699,148.0715,60.36545,36.51468
1401360,350.7913,147.6723,60.31083,36.44074
1401385,350.029,147.4208,60.25716,36.39407
1401408,349.1919,147.3813,60.19803,36.38675
1401433,348.1225,147.3741,60.12218,36.3854
1401454,347.0988,147.4545,60.04925,36.40034
1401488,346.025,147.682,59.97239,36.44253
1401501,344.9536,148.0365,59.89535,36.50819
1401522,343.6781,148.4976,59.80317,36.59344
1401552,342.5239,149.164,59.71931,36.71631
1401573,341.257,150.0464,59.62677,36.8784
1401600,340.0926,151.0104,59.54127,37.0547
1401620,339.1267,151.839,59.47002,37.20559
1401644,338.0895,152.7526,59.39317,37.37126
1401669,337.0749,153.6772,59.31765,37.53817
1401690,336.2938,154.3154,59.25928,37.65295
1401714,335.3384,155.0591,59.18762,37.78626
1401738,334.4882,155.6819,59.1236,37.89753
1401760,333.4583,156.5131,59.04572,38.04551
1401784,332.4213,157.2197,58.96694,38.17084
1401808,331.2038,157.9257,58.87399,38.29564
1401834,329.707,158.6525,58.75903,38.42364
1401854,328.0124,159.5644,58.62796,38.58363
1401878,325.9377,160.6444,58.46613,38.77219
1401907,323.9409,161.4866,58.30896,38.91855
1401927,322.0148,162.3908,58.15602,39.07502
1401950,319.7698,163.284,57.97608,39.22889
1401973,317.5182,164.1365,57.79379,39.37512
1401999,315.2664,164.9055,57.6096,39.50652
1402020,313.1413,165.4904,57.43406,39.60612
1402047,310.5439,166.1211,57.21719,39.7132
1402071,308.4837,166.6003,57.04335,39.79436
1402094,306.5393,167.0165,56.87777,39.86467
1402117,304.3642,167.4799,56.69078,39.9428
1402139,302.2537,167.9859,56.50756,40.0279
1402165,300.0104,168.3425,56.31085,40.08774
1402189,298.2679,168.5832,56.15664,40.12807
1402210,296.6787,168.7132,56.01492,40.14984
1402237,295.0207,168.8138,55.86593,40.16667
1402258,293.7384,168.8207,55.74992,40.16783
1402282,292.5071,168.8156,55.63786,40.16697
1402307,291.6491,168.824,55.5594,40.16838
1402334,290.8098,169.008,55.48235,40.19915
1402356,290.2815,169.3037,55.43369,40.24853
1402376,289.6925,169.6141,55.3793,40.3003
1402399,289.0136,170.0098,55.31642,40.36616
1402423,288.5612,170.3654,55.2744,40.42525
1402448,288.0737,170.6052,55.22903,40.46503
1402471,287.3274,170.8985,55.15938,40.51363
1402493,286.5714,171.1149,55.08857,40.54945
1402518,285.8945,171.2281,55.02495,40.56817
1402541,285.2111,171.3619,54.96052,40.59028
1402563,284.2549,171.5176,54.87002,40.61599
1402592,283.6851,171.6458,54.81589,40.63715
1402611,282.9501,171.8405,54.74586,40.66925
1402636,282.1364,172.01,54.66805,40.69719
1402657,281.4599,172.1812,54.60313,40.72536
1402682,280.6899,172.3747,54.52898,40.75718
1402708,280.0446,172.5056,54.46663,40.77868
1402727,280.5105,172.3342,54.51167,40.75053
1402753,280.354,172.3074,54.49655,40.74611
1402776,280.1571,172.2946,54.47752,40.74401
1402799,280.035,172.259,54.46571,40.73816
1402822,279.9577,172.1635,54.45823,40.72245
1402847,279.8366,172.1784,54.44651,40.7249
1402871,279.8611,172.2022,54.44888,40.72881
1402896,279.9591,172.2678,54.45836,40.7396
1402919,279.9795,172.3362,54.46034,40.75085
1402941,280.0703,172.334,54.46913,40.75048
1402967,280.2056,172.3044,54.48221,40.74563
1402990,280.1644,172.2608,54.47823,40.73846
1403013,280.0181,172.3008,54.46407,40.74503
1403037,279.9431,172.2411,54.45681,40.73521
1403059,279.7383,172.216,54.43697,40.73108
1403086,279.5475,172.3611,54.41848,40.75495
1403108,279.2669,172.6061,54.39125,40.79519
1403130,278.7706,173.0439,54.34299,40.867
1403155,278.0077,173.7004,54.26859,40.97438
1403177,276.9798,174.4893,54.16792,41.10297
1403201,274.8644,175.611,53.95918,41.28491
1403225,271.8546,176.8042,53.65855,41.47736
1403251,268.1716,178.2615,53.28475,41.71086
1403273,263.5387,179.7312,52.80507,41.94464
1403301,258.4157,181.2804,52.26204,42.18923
1403321,253.3817,182.8064,51.71515,42.42831
1403344,247.9237,184.6119,51.10689,42.70885
1403368,242.0283,186.6944,50.43139,43.02932
1403391,237.2183,188.6448,49.86559,43.32644
1403414,232.4119,190.7061,49.28665,43.63734
1403439,227.8266,193.1,48.72137,43.9944
1403462,223.9452,195.4433,48.23273,44.33981
1403487,219.8665,198.1383,47.709,44.73209
1403510,217.0883,200.3961,47.34612,45.05667
1403534,214.577,202.9957,47.01375,45.42591
1403556,212.2578,205.5222,46.70309,45.78019
1403579,210.1294,208.1299,46.4148,46.14117
1403604,207.5114,211.1413,46.05598,46.55224
1403628,204.9899,213.6975,45.70591,46.89637
1403652,201.6216,216.8025,45.23134,47.3085
1403675,198.6595,219.3979,44.80734,47.64815
1403696,195.8564,222.0722,44.40028,47.99355
1403722,193.7451,224.5648,44.08989,48.31137
1403747,192.6147,226.6556,43.92237,48.57495
1403769,192.0428,229.3737,43.83724,48.91354
1403794,192.333,231.8419,43.88047,49.21707
1403817,193.0736,234.5236,43.99048,49.5427
1403841,194.1528,237.7436,44.15009,49.92804
1403866,195.1997,240.3603,44.30409,50.23669
1403885,196.5955,244.3189,44.50817,50.69617
1403920,197.6866,247.1621,44.6667,51.02071
1403937,198.7331,249.5792,44.81796,51.2931
1403959,199.4931,252.0375,44.92731,51.56684
1403983,199.9868,254.2516,44.9981,51.81062
1404006,200.2554,256.3526,45.03656,52.03952
1404030,200.2734,258.1984,45.03913,52.2387
1404054,200.3251,260.0118,45.04652,52.43267
1404076,200.3867,261.8069,45.05533,52.623
1404099,200.5518,263.4119,45.07893,52.79179
1404124,200.9746,265.2113,45.13927,52.97948
1404147,201.4276,266.8263,45.20376,53.14656
1404170,202.1488,268.5421,45.30615,53.32265
1404194,203.0165,269.9507,45.42883,53.46614
1404218,203.7778,270.9552,45.53605,53.56787
1404241,204.627,271.9137,45.65516,53.66449
1404267,205.159,272.4562,45.72953,53.71899
1404290,205.6776,272.9188,45.80182,53.76534
1404311,206.1158,273.2847,45.86277,53.80194
1404333,206.4396,273.5964,45.90772,53.83306
1404358,206.8039,273.8165,45.95819,53.855
1404381,207.5016,273.7681,46.05463,53.85017
1404406,208.3891,273.6477,46.1768,53.83818
1404430,209.1677,273.6318,46.28354,53.83659
1404453,209.9005,273.4541,46.38363,53.81886
1404477,210.616,273.3577,46.48099,53.80923
1404500,211.2633,273.1557,46.56877,53.78904
1404524,212.0203,272.9825,46.67108,53.77172
1404546,212.8816,272.6695,46.78701,53.74037
1404572,214.0315,272.2455,46.94101,53.69785
1404595,215.2575,271.827,47.10423,53.65577
1404617,217.0576,270.8798,47.34208,53.56026
1404644,218.6549,269.5058,47.55137,53.42093
1404667,219.7877,268.0604,47.69878,53.27337
1404690,221.7016,265.6057,47.94595,53.02041
1404711,224.2066,263.2598,48.26594,52.77585
1404737,227.5884,261.4945,48.69166,52.59
1404761,231.761,260.1277,49.20719,52.445
1404782,236.4438,258.8267,49.77322,52.3061
1404807,241.7157,257.5468,50.39502,52.16859
1404829,246.8819,256.4807,50.98894,52.05341
1404853,254.0136,255.0996,51.78453,51.90329
1404879,262.3306,254.0519,52.67822,51.78873
1404905,270.5673,253.0974,53.52865,51.68387
1404929,280.8002,251.5403,54.53962,51.51175
1404954,291.0391,249.4617,55.50343,51.27993
1404975,302.5998,246.036,56.53773,50.89271
1405001,311.0569,242.5551,57.26023,50.49255
1405024,320.6085,238.429,58.04351,50.00926
1405048,328.9973,235.1625,58.70426,49.61965
1405071,337.5831,232.4241,59.35552,49.28814
1405096,347.3052,228.9854,60.06398,48.86544
1405121,355.5864,225.979,60.64437,48.48996
1405142,364.9396,222.9317,61.27568,48.10359
1405163,374.3613,219.8469,61.88694,47.70646
1405190,382.7766,216.7466,62.41302,47.30115
1405213,392.0029,213.6555,62.96931,46.89075
1405235,400.2461,211.1091,63.44904,46.54789
1405259,409.1153,208.0687,63.94785,46.13276
1405282,417.3725,205.8722,64.3968,45.8289
1405307,425.4232,204.2064,64.82084,45.59623
1405330,432.8309,203.3158,65.19956,45.47104
1405353,439.5436,202.6802,65.53364,45.38135
1405378,446.854,202.4261,65.88798,45.34542
1405402,453.5097,202.379,66.20229,45.33875
1405429,460.2861,202.687,66.51446,45.38231
1405449,466.4984,203.5193,66.79393,45.49969
1405472,472.9625,205.5436,67.07813,45.78316
1405497,479.1425,207.5877,67.34374,46.0665
1405519,484.911,210.0318,67.58646,46.40151
1405544,490.1136,212.2605,67.80117,46.70346
1405567,493.2014,213.3154,67.92677,46.8452
1405591,495.6536,214.3805,68.02555,46.98757
1405616,497.5007,216.2846,68.0994,47.2402
1405637,498.6891,218.8158,68.14668,47.57235
1405661,499.8323,221.881,68.19196,47.96901
1405686,500.6291,225.0122,68.22342,48.368
1405707,501.3537,228.9846,68.25195,48.86535
1405734,501.5292,232.8453,68.25886,49.33942
1405757,501.295,236.4146,68.24965,49.76974
1405776,500.1869,240.9187,68.20597,50.30204
1405800,499.3074,244.5918,68.17119,50.72752
1405824,498.2367,248.7712,68.1287,51.2024
1405851,497.1722,253.2919,68.0863,51.70527
1405871,496.3362,257.1508,68.05289,52.12587
1405893,495.6754,261.6707,68.02643,52.60862
1405918,495.585,265.9623,68.0228,53.05734
1405941,495.5557,270.3611,68.02162,53.50776
1405967,495.6436,274.181,68.02515,53.8913
1405991,495.8623,277.6215,68.03392,54.23082
1406013,496.1564,281.1386,68.0457,54.57222
1406035,496.4857,283.9106,68.05888,54.83733
1406059,496.7452,286.6606,68.06925,55.09694
1406085,497.4032,289.2286,68.09552,55.33635
1406108,498.2966,290.7877,68.13109,55.48031
1406133,499.6095,292.4499,68.18315,55.63264
1406157,500.9205,293.6478,68.23491,55.7417
1406177,502.635,294.6633,68.30224,55.83366
1406201,504.4398,295.3796,68.3727,55.89828
1406229,506.2477,296.385,68.44283,55.9886
1406249,508.0196,297.5327,68.51115,56.0912
1406272,509.7515,298.664,68.57754,56.1918
1406294,511.0329,299.7577,68.6264,56.28856
1406319,512.3803,300.8424,68.67756,56.38404
1406339,513.3679,301.5652,68.7149,56.4474
1406370,514.0826,302.2079,68.74184,56.50356
1406391,514.4779,302.5847,68.75672,56.53642
1406412,514.7679,302.9938,68.76763,56.57201
1406437,514.9221,303.121,68.77341,56.58307
1406458,514.7795,303.2043,68.76806,56.59031
1406482,514.6259,303.0486,68.76229,56.57678
1406515,514.42,302.9337,68.75455,56.56679
1406534,514.0089,302.816,68.73907,56.55655
1406554,513.8123,302.4963,68.73166,56.52872
1406578,513.6674,302.0828,68.7262,56.49265
1406601,513.4043,301.5415,68.71627,56.44533
1406624,512.7431,300.7141,68.69129,56.37278
1406649,511.2476,299.8185,68.63457,56.29393
1406672,509.5434,298.9333,68.56958,56.21567
1406694,507.704,298.0122,68.49902,56.13391
1406717,505.3077,296.878,68.40642,56.03274
