Time Stamp(ms),Intersection,,Angle,
,x,y,x,y
494606.8,313.308,238.528,57.44789,50.02097
494622.8,313.0417,238.4415,57.4258,50.01074
494639.1,312.8517,238.3473,57.41001,49.99959
494653.8,312.7264,238.3858,57.3996,50.00415
494672.6,312.6673,238.3661,57.39468,50.00183
494687.8,312.6081,238.2432,57.38976,49.98727
494704.8,312.5628,238.122,57.38599,49.97292
494723,312.4865,238.1163,57.37963,49.97224
494740.5,312.4037,238.1523,57.37274,49.9765
494755.9,312.3297,238.1445,57.36658,49.97557
494772.8,312.2436,238.3961,57.3594,50.00537
494790.3,312.0084,238.7409,57.33979,50.04614
494806.9,311.7723,239.0341,57.32008,50.08075
494824.3,311.586,239.2996,57.30451,50.11205
494840.3,311.3181,239.8383,57.28211,50.17544
494857.1,311.0199,240.2605,57.25713,50.22499
494874.3,310.6818,240.4177,57.22877,50.24342
494891,310.268,240.0531,57.19401,50.20066
494907.6,309.844,239.8048,57.15832,50.1715
494924.1,309.4329,239.7378,57.12365,50.16363
494940.7,308.9111,239.5932,57.07955,50.14663
494958.1,308.5083,239.3715,57.04543,50.12052
494974.1,308.2194,239.0883,57.02093,50.08715
494991.2,307.998,238.9081,57.00212,50.06589
495009.2,307.892,238.8705,56.99311,50.06145
495024.9,307.8855,239.026,56.99257,50.0798
495042.2,307.9452,238.9712,56.99764,50.07333
495062.7,308.018,238.9321,57.00382,50.06872
495076,308.0345,239.0841,57.00523,50.08665
495093.2,308.0187,239.3574,57.00388,50.11886
495109.3,308.0145,240.0467,57.00352,50.19992
495125.3,307.9988,240.7276,57.00219,50.2797
495141.4,308.0044,241.8633,57.00267,50.4122
495157.8,307.943,243.7932,56.99745,50.63567
495175.2,307.8618,245.7305,56.99054,50.85786
495194.3,307.752,247.5098,56.98121,51.06009
495209.1,307.5987,248.6023,56.96817,51.1834
495224.4,307.3216,249.6017,56.94456,51.29562
495241.4,306.9101,250.8577,56.90946,51.43588
495257.2,306.527,252.3105,56.87672,51.59704
495273.8,305.9909,254.2203,56.8308,51.80719
495291.2,305.4648,255.8142,56.78563,51.98108
495309.6,304.8867,257.3387,56.73587,52.14616
495326.2,304.1794,258.8712,56.67482,52.31087
495342.5,303.4149,260.5548,56.60859,52.49041
495359.3,302.801,261.9463,56.55525,52.63771
495374.4,302.1568,263.2665,56.4991,52.77655
495392.9,301.4274,264.2278,56.43534,52.8771
495411.1,300.7381,265.1175,56.37489,52.96974
495425.3,300.0665,265.9639,56.31579,53.05751
495447.8,299.3362,266.9204,56.25133,53.15625
495459.3,298.5998,268.069,56.1861,53.27424
495474.8,297.8715,269.2768,56.12138,53.39762
495492.2,297.23,270.5011,56.0642,53.52195
495507.8,296.5911,271.7651,56.00707,53.64955
495525.7,295.9584,272.9759,55.95033,53.77105
495542.3,295.1798,274.3847,55.88028,53.91156
495560.5,294.4573,275.5387,55.81504,54.02595
495576.6,293.7215,276.6183,55.74838,54.13239
495590.9,292.8574,277.744,55.6698,54.24281
495608,291.9389,278.9313,55.58593,54.35862
495626.6,291.0136,280.0558,55.50108,54.46772
495643.8,289.7787,281.2791,55.38726,54.58574
495658.2,288.6852,282.3768,55.28593,54.69107
495674.6,287.4469,283.4387,55.17055,54.79244
495690.8,286.2221,284.4056,55.05577,54.88431
495709.2,284.7037,285.621,54.91255,54.99919
495725.3,283.1869,286.6665,54.76845,55.09749
495742.3,281.5624,287.78,54.61298,55.20166
495758.5,279.7253,288.9585,54.43572,55.31131
495774.6,277.8604,290.2401,54.25419,55.42987
495791.6,275.9806,291.454,54.06958,55.54152
495807.7,273.8416,292.998,53.85751,55.68261
495824.1,271.7518,294.411,53.64821,55.81085
495841.8,269.7101,295.8405,53.4417,55.93974
495857.5,267.6087,297.3904,53.22704,56.07851
495873.8,265.4224,299.0667,53.00139,56.22749
495891.3,263.1887,301.1571,52.76839,56.41166
495908.1,261.0702,302.9861,52.54508,56.57135
495924.1,258.9268,304.9296,52.31682,56.73957
495941,256.7162,307.3058,52.07889,56.94321
495958.1,254.7281,309.5184,51.86274,57.13086
495974.2,252.4807,311.6418,51.61586,57.30918
495992.2,250.4335,313.4438,51.3886,57.45916
496008.7,248.4914,315.1284,51.17091,57.59826
496025.4,246.5797,316.9964,50.9546,57.75127
496041.3,244.5531,318.8886,50.72308,57.90496
496058.7,242.614,320.4919,50.49937,58.03416
496075.3,240.6404,321.9606,50.26949,58.1517
496094.8,238.6916,323.4153,50.04031,58.26736
496110.6,236.996,324.7883,49.83912,58.37583
496126.2,235.1386,326.4576,49.61677,58.50683
496143.2,233.2054,328.1895,49.38318,58.6417
496162,231.3824,329.5068,49.16085,58.7436
496177.5,229.8212,330.7086,48.96885,58.83604
496193.9,228.0197,332.3758,48.74545,58.96348
496212.5,226.4456,333.7016,48.5486,59.06415
496229,224.8343,334.9638,48.3455,59.15944
496249.7,223.3728,335.9333,48.15988,59.23228
496263.4,222.0625,336.9318,47.99231,59.30697
496279,220.9132,337.8241,47.84442,59.37345
496293.7,219.8609,338.5811,47.70827,59.42963
496312.2,219.0472,339.1969,47.60251,59.4752
496327.8,218.3168,339.6274,47.50721,59.507
496344.3,217.7088,339.9655,47.42761,59.53191
496360.7,217.0763,340.1697,47.34454,59.54695
496377.4,216.4293,340.5916,47.25931,59.57797
496405.1,216.0836,340.8767,47.21365,59.5989
496416.3,215.8885,341.1161,47.18785,59.61645
496427.9,215.4688,341.1248,47.13226,59.61709
496445.8,215.0301,341.0248,47.07403,59.60976
496460.9,214.4631,340.5602,46.99858,59.57566
496495.1,213.3435,339.0413,46.84898,59.4637
496508.6,212.7389,338.1599,46.76784,59.39839
496520.5,212.0954,336.9356,46.68121,59.30726
496532,211.1724,335.0176,46.55646,59.16349
496546.3,210.1871,332.4861,46.42266,58.97188
496560.5,208.9116,329.0264,46.24848,58.7065
496579.4,207.7596,325.8626,46.0902,58.46025
496594.8,206.4586,322.1053,45.91035,58.16324
496611.7,205.238,318.6036,45.74055,57.88189
496629,203.9189,314.1843,45.55588,57.52043
496647,202.8408,310.1952,45.40404,57.18788
496663.1,201.8332,306.0648,45.26138,56.83714
496678.2,200.7428,301.4298,45.10619,56.43555
496694.2,199.3791,295.9078,44.91093,55.94578
496712.4,198.0836,290.8979,44.72418,55.49045
496729.3,196.6562,286.0336,44.517,55.03804
496746.6,195.3308,281.2577,44.32332,54.58368
496763.4,194.1119,277.1631,44.14406,54.18591
496778.1,192.8787,272.544,43.96157,53.72779
496795.2,191.65,267.9546,43.77863,53.26252
496813.1,190.5669,263.588,43.61645,52.81023
496830.1,189.4707,259.2637,43.45139,52.35286
496847.7,188.4534,255.1998,43.29741,51.91422
496863.4,187.3193,250.9464,43.12483,51.44576
496879.3,186.0974,246.8197,42.93778,50.98188
496896.2,184.8063,242.9256,42.73891,50.53547
496912.4,183.6971,239.2341,42.56702,50.10433
496929.6,182.7298,235.7009,42.41635,49.6843
496947.3,181.7713,232.102,42.26634,49.24885
496964.3,180.8084,228.588,42.1149,48.81614
496980.2,179.9301,225.3574,41.97615,48.41161
496995.3,179.1782,222.0586,41.85687,47.9918
497013.3,178.5224,218.8952,41.75248,47.58271
497029.1,177.9782,215.4708,41.6656,47.13253
497046.2,177.4001,212.377,41.57305,46.71915
497061.8,176.7366,209.2016,41.46648,46.28817
497079.3,176.1629,206.2844,41.37407,45.88618
497096,175.7578,203.597,41.30864,45.51062
497112.5,175.5073,201.4847,41.26813,45.21188
497129.3,175.2159,199.1727,41.22094,44.88126
497146.4,174.9013,196.948,41.1699,44.55948
497163.6,174.6383,195.2057,41.12719,44.30497
497179,174.4613,193.2551,41.0984,44.0174
497195.5,174.3234,191.3346,41.07597,43.7315
497213.7,174.3078,189.7729,41.07341,43.49699
497230.3,174.26,188.2061,41.06564,43.25986
497246.6,174.3057,186.7484,41.07308,43.03757
497264.1,174.3526,185.4936,41.08071,42.84494
497279.8,174.4064,184.4327,41.08947,42.68113
497295.3,174.4983,183.2922,41.10442,42.50404
497312.8,174.6284,182.4797,41.12558,42.37728
497331.3,174.751,181.6603,41.1455,42.24892
497348.2,174.8342,180.8738,41.15901,42.12521
497362.7,174.9242,180.1327,41.17362,42.00821
497379.6,175.0165,179.5947,41.1886,41.923
497395.5,175.035,179.0748,41.19161,41.84045
497413.8,174.9682,178.7801,41.18076,41.79355
497430.6,174.8145,178.4497,41.15582,41.74088
497447.2,174.6652,178.2975,41.13156,41.7166
497469.8,174.5555,178.1916,41.11373,41.69969
497480.6,174.4918,178.0693,41.10336,41.68015
497499.7,174.5109,178.2205,41.10648,41.70431
497515.1,174.4298,178.2474,41.09328,41.70861
497531.1,174.3901,178.3878,41.08681,41.73102
497550.8,174.3212,178.5914,41.0756,41.76348
497563.9,174.0809,178.6226,41.03646,41.76845
497580.6,173.9913,178.7708,41.02185,41.79206
497596.3,173.9605,179.1042,41.01683,41.84512
497613.7,173.9532,179.2553,41.01564,41.86912
497631.3,173.9803,179.3985,41.02005,41.89187
497651.6,173.9932,179.3088,41.02216,41.87762
497670.1,174.0318,179.3297,41.02846,41.88095
497685.9,174.14,179.4211,41.04609,41.89546
497698.6,174.2475,179.3601,41.06359,41.88577
497715.8,174.3785,179.2494,41.08493,41.86818
497734,174.449,179.1588,41.0964,41.85379
497751.5,174.5212,179.0136,41.10815,41.8307
497765.7,174.6287,178.8293,41.12563,41.80138
497782.2,174.8069,178.6921,41.15458,41.77953
497799.1,174.9419,178.7047,41.17649,41.78153
497814.9,175.1071,178.6656,41.2033,41.7753
497833.5,174.9192,179.3367,41.17281,41.88206
497850,174.9891,179.4794,41.18416,41.90471
497863.8,175.0055,179.7021,41.18682,41.94002
497885.8,175.0675,179.7975,41.19688,41.95514
497900.4,175.0644,179.8778,41.19637,41.96787
497916.1,175.1069,179.9856,41.20327,41.98493
497933,175.1295,180.1629,41.20694,42.01298
497953.7,175.1338,180.3222,41.20762,42.03816
497968.6,175.119,180.4083,41.20523,42.05177
497985.1,175.1933,180.4765,41.21727,42.06254
498002.2,175.2147,180.5456,41.22074,42.07344
498018,175.267,180.6539,41.22923,42.09053
498032.4,175.2641,180.7034,41.22875,42.09835
498051.3,175.3035,180.8215,41.23513,42.11696
498069,175.294,180.9005,41.2336,42.12942
498081.7,175.3531,181.0522,41.24317,42.15332
498098.6,175.3116,181.2269,41.23644,42.18082
498114.9,175.3004,181.3196,41.23463,42.19539
498135.2,175.2752,181.4265,41.23055,42.21219
498156.8,175.2367,181.465,41.2243,42.21825
498168.6,175.2943,181.5227,41.23364,42.22731
498184.1,175.3013,181.6209,41.23478,42.24273
498200.6,175.309,181.7487,41.23602,42.26278
498217.2,175.3615,181.8539,41.24452,42.2793
498234.4,175.377,181.9286,41.24704,42.291
498252.3,175.5686,182.0355,41.27806,42.30776
498268.3,175.7065,182.1472,41.30035,42.32525
498284.4,175.8273,182.3785,41.31988,42.36145
498300.9,176.0343,182.6655,41.35331,42.4063
498318,176.1578,182.8321,41.37324,42.43232
498333.5,176.2872,183.0448,41.39411,42.4655
498352.2,176.3681,183.1553,41.40715,42.48272
498368.2,176.5092,183.2764,41.42988,42.50158
498384.8,176.6001,183.3322,41.44452,42.51027
498401.7,176.6557,183.376,41.45347,42.51709
498421.3,176.6544,183.4884,41.45327,42.53458
498435.5,176.5766,183.6179,41.44073,42.55471
498455.4,176.5105,183.7319,41.4301,42.57243
498469.5,176.3733,183.7656,41.40799,42.57767
498486.3,176.3089,183.8945,41.39761,42.59768
498502.1,176.2101,184.0728,41.38168,42.62535
498526.1,176.0667,184.2736,41.35855,42.65647
498538.1,175.9454,184.3956,41.33897,42.67537
498553,175.8122,184.4682,41.31744,42.68661
498568.7,175.6804,184.4736,41.29614,42.68745
498591.3,175.5182,184.6057,41.26991,42.70789
498609.6,175.4913,184.6932,41.26554,42.72142
498622.2,175.4591,184.792,41.26033,42.73669
498636.8,175.5002,184.9954,41.26699,42.76811
498653.1,175.5846,185.2652,41.28064,42.80973
498672.5,175.6668,185.4109,41.29394,42.8322
498686.7,175.936,185.5823,41.33744,42.85859
498701.7,176.1746,185.7975,41.37595,42.89171
498717.9,176.3831,185.9704,41.40956,42.91827
498734.1,176.8277,186.2859,41.48114,42.96671
498751.6,177.3052,186.578,41.55782,43.01149
498768.8,178.0059,186.9246,41.67002,43.06453
498786.3,178.622,187.2242,41.76836,43.11032
498801.3,179.4531,187.4492,41.90053,43.14465
498818.4,180.3448,187.7406,42.04174,43.18906
498835.3,181.3627,188.0388,42.20216,43.23443
498852.7,182.6088,188.3378,42.39745,43.27986
498868.9,184.0228,188.6791,42.61759,43.33164
498885.9,185.6456,189.0064,42.86833,43.38122
498903.8,187.6881,189.3646,43.18106,43.43536
498920.2,189.7856,189.7996,43.4989,43.50101
498935.3,191.9277,190.3002,43.82008,43.57637
498951.2,194.845,190.9701,44.252,43.67693
498969.4,198.1785,191.732,44.7379,43.79087
498987.4,201.4252,192.4686,45.20341,43.90063
499004.5,204.5548,193.1228,45.64505,43.99778
499019.8,207.878,193.724,46.10651,44.08678
499035.3,212.1001,194.5471,46.68184,44.20818
499053.4,215.7048,195.261,47.16353,44.31308
499070.3,220.001,196.1435,47.72644,44.44224
499086.8,224.0412,196.8473,48.24493,44.54483
499109,228.6919,197.5898,48.82903,44.65267
499124.7,232.5618,198.1561,49.30491,44.73466
499136.6,236.6133,198.939,49.79346,44.84762
499152.5,240.8496,199.6824,50.29397,44.95447
499169.8,245.3101,200.5235,50.80982,45.07489
499187,249.6414,201.3799,51.30007,45.19698
499207.7,253.9144,202.1912,51.77367,45.31215
499224.2,258.0568,202.9908,52.22348,45.42522
499238.3,262.0726,203.8303,52.65104,45.54343
499252.9,267.0028,204.9541,53.16474,45.7009
499272.4,270.7267,205.8971,53.54477,45.83237
499287.1,275.3489,207.1511,54.00718,46.00622
499305.9,279.1234,208.2289,54.3773,46.15478
499320.2,283.0905,209.4187,54.75926,46.31786
499338.8,287.0728,210.7487,55.13556,46.499
499356.1,291.3172,212.1182,55.52897,46.68428
499374.7,294.7075,213.2568,55.83766,46.83735
499389.3,300.0452,215.0776,56.31391,47.08035
499412.8,302.1251,215.8346,56.49634,47.18072
499422.9,304.9683,216.9169,56.7429,47.32358
499438,308.0834,218.1206,57.00938,47.48154
499454.7,311.0386,219.2016,57.2587,47.6226
499469.7,313.7282,220.3427,57.48272,47.77069
499486.7,316.4824,221.5555,57.7093,47.92716
499504.2,318.7417,222.7564,57.89307,48.08118
499520.7,321.0753,223.9764,58.08094,48.2367
499537.8,323.0482,224.9757,58.23824,48.36338
499554.3,324.923,226.1195,58.38644,48.50762
499571.4,326.7086,227.2606,58.52644,48.65071
499589.4,328.3582,228.3708,58.65479,48.78914
499605.5,329.6328,229.3545,58.75332,48.91116
499620.8,331.1389,230.3289,58.86903,49.03144
499637.5,332.692,231.2399,58.98755,49.14339
499660,334.7075,232.319,59.14013,49.27532
499677.5,336.0553,232.8714,59.24142,49.34259
499688.9,337.6342,233.3403,59.35932,49.39955
499708.8,339.179,233.4741,59.47388,49.41578
499723.5,340.9999,233.3555,59.60794,49.4014
499740.3,342.747,233.189,59.73555,49.38119
499756.2,344.3623,232.9429,59.85268,49.35128
499772,346.1469,232.5238,59.98114,49.30029
499789,347.9134,232.1442,60.10731,49.254
499808.4,349.4605,231.8223,60.21703,49.21469
499823.4,350.8863,231.546,60.3175,49.18088
499841.1,352.3499,231.23,60.41999,49.14217
499860.8,353.7316,230.979,60.51617,49.11138
499878.8,354.9441,230.7068,60.60009,49.07795
499891.8,356.0939,230.3898,60.67928,49.03895
499910,357.188,230.1392,60.75426,49.00808
499923.2,358.2487,229.86,60.82663,48.97363
499945.9,359.3271,229.5873,60.89987,48.93996
499960.6,360.1673,229.3266,60.9567,48.90771
499974.6,361.0796,228.9956,61.01817,48.86671
499990.1,362.1395,228.6424,61.0893,48.82289
500009.7,363.3081,228.253,61.16735,48.77448
500025.7,364.3167,227.9121,61.23441,48.73203
500041.2,365.5378,227.4932,61.31521,48.67977
500058.9,366.7124,227.0278,61.39255,48.62158
500074.4,367.9855,226.5459,61.47594,48.56118
500090,369.189,226.1617,61.55436,48.51293
500109,370.5693,225.6807,61.64381,48.45238
500127.8,371.9131,225.2391,61.73042,48.39667
500144.4,373.3387,224.6363,61.82175,48.32043
500157.1,374.9794,223.9137,61.9262,48.22874
500174.1,376.53,223.2966,62.02427,48.15016
500193.8,378.0738,222.6878,62.12128,48.0724
500209.7,379.5249,222.0733,62.21191,47.99369
500225.3,381.06,221.461,62.30719,47.91501
500242.1,382.7349,220.8341,62.41046,47.83421
500257.9,384.1774,220.261,62.49884,47.76012
500274.4,385.7562,219.6827,62.59497,47.68515
500292.3,387.183,219.0283,62.68131,47.60005
500310.1,388.5957,218.449,62.76631,47.52448
500326.9,390.0695,217.9102,62.85446,47.454
500343.3,391.5233,217.4395,62.9409,47.39227
500357.8,392.7361,217.0552,63.01263,47.34177
500374.3,394.1522,216.5154,63.09593,47.27066
500394.4,395.3445,216.0549,63.1657,47.20985
500408.6,396.5772,215.6178,63.23748,47.15201
500424.3,397.7331,215.1479,63.30447,47.08969
500440.7,398.8408,214.7651,63.36837,47.03879
500456.9,399.84,214.3541,63.42578,46.98405
500472.7,401.1746,213.7773,63.50209,46.90704
500492.2,402.3241,213.2829,63.56749,46.84085
500511.8,403.3047,212.7445,63.62305,46.76859
500526.7,404.3618,212.1029,63.6827,46.68221
500541.5,405.3723,211.5089,63.73949,46.602
500556.1,406.4024,210.7688,63.79714,46.50174
500573.1,407.4088,210.0151,63.85323,46.39924
500593.8,408.278,209.2088,63.90151,46.28916
500609.5,409.2498,208.385,63.95528,46.17624
500626,410.0511,207.625,63.99947,46.07165
500642,410.7685,206.788,64.03891,45.95599
500659.1,411.4315,206.0093,64.07526,45.84797
500675.7,412.0071,205.2097,64.10674,45.7366
500692,412.4831,204.3862,64.13272,45.62144
500711.7,412.6986,203.8024,64.14447,45.5395
500726.3,412.8319,203.0082,64.15173,45.42767
500746.9,412.8945,202.3906,64.15514,45.34039
500760.3,412.8314,201.7979,64.1517,45.25637
500775.4,412.6021,201.2972,64.13921,45.18521
500794.4,412.1284,200.8736,64.11337,45.12486
500812.8,411.6584,200.4457,64.08768,45.06377
500827.8,411.1224,200.1111,64.05832,45.01591
500843.8,410.5812,199.8545,64.02863,44.97915
500858.2,409.9113,199.5067,63.99177,44.92925
500876.6,409.2562,199.202,63.95564,44.88546
500893.7,408.6573,198.9402,63.92252,44.84779
500910.1,408.0864,198.7896,63.89088,44.8261
500927,407.5191,198.5519,63.85937,44.79182
500943.7,406.877,198.3847,63.82362,44.76769
500963.3,406.2078,198.2657,63.78627,44.7505
500976.8,405.642,198.1462,63.7546,44.73323
500992.5,405.023,198.1096,63.71988,44.72794
501010.2,404.423,198.1227,63.68615,44.72983
501029.8,403.946,198.0481,63.65926,44.71904
501044.1,403.441,198.0479,63.63076,44.71901
501060.3,402.9438,198.1297,63.60263,44.73085
501077.2,402.3137,198.2697,63.56691,44.75108
501092.1,401.5135,198.3782,63.52141,44.76675
501112.8,400.8044,198.526,63.48096,44.78809
501130.6,400.0911,198.6378,63.44017,44.80422
501143.3,399.3698,198.8725,63.39879,44.83805
501159.7,398.5808,199.1021,63.3534,44.87109
501176.2,397.7758,199.4581,63.30694,44.92227
501196.4,396.9927,199.8309,63.2616,44.97578
501212,396.2032,200.1894,63.21574,45.02711
501229.2,395.4177,200.5342,63.16998,45.07642
501245.7,394.5826,200.7355,63.12116,45.10516
501260.4,393.8606,201.0134,63.07882,45.14479
501275.6,393.1883,201.2869,63.03928,45.18375
501294.1,392.5263,201.5508,63.00025,45.22128
501311,391.9283,201.9088,62.96489,45.27212
501327.3,391.2892,202.2179,62.92702,45.31594
501344.3,390.7202,202.4651,62.89322,45.35093
501360.9,390.1735,202.8074,62.86066,45.39933
501377.7,389.757,203.1545,62.83582,45.4483
501393.3,389.2576,203.5265,62.80597,45.50071
501411.2,388.8388,203.9182,62.78089,45.55577
501428.1,388.3333,204.363,62.75056,45.61819
501443.2,387.7994,204.8238,62.71846,45.68269
501466.6,387.1805,205.3271,62.68116,45.75299
501480.4,386.6028,205.8592,62.64626,45.8271
501498.6,385.8727,206.4181,62.60204,45.90474
501513.3,385.017,207.0069,62.55004,45.98629
501528.6,384.1841,207.5742,62.49925,46.06464
501547.1,383.3621,208.1043,62.44895,46.13765
501562.2,382.4354,208.7436,62.39205,46.22545
501578.4,381.4661,209.3551,62.33229,46.30916
501596,380.2162,210.087,62.25489,46.40903
501613.1,379.002,210.7781,62.17931,46.503
501630.8,377.2835,211.7161,62.0717,46.63001
501649.3,375.4527,212.8473,61.95621,46.7824
501664.3,373.6355,214.0959,61.8407,46.94961
501678.9,371.0479,216.029,61.67472,47.20644
501695.3,368.3152,218.1625,61.49746,47.48702
501713,365.6265,220.3548,61.32106,47.77225
501729.3,361.9463,223.494,61.07636,48.17531
501748.1,358.6105,226.292,60.85123,48.52931
501763.6,354.9843,229.4203,60.60287,48.91931
501780.1,351.0013,232.8439,60.32557,49.33925
501796.4,347.2296,236.2833,60.05859,49.75404
501813.5,343.6382,239.952,59.80028,50.18879
501831.4,339.8937,244.3111,59.52663,50.69527
501846.8,336.4182,248.5893,59.2686,51.18194
501863.5,332.8817,252.9787,59.00196,51.6708
501880,329.481,257.6342,58.74161,52.17801
501897.8,326.0104,262.5537,58.47182,52.7017
501915.3,322.3145,267.513,58.1799,53.21721
501933.5,318.9824,271.9375,57.91254,53.66689
501951.2,315.8636,276.1277,57.65864,54.0841
501966.6,313.0234,280.0311,57.42427,54.46533
501979.5,309.8736,284.2318,57.16081,54.86782
501997.4,306.4384,288.0982,56.86914,55.23132
502013.8,303.2035,291.6646,56.59024,55.56082
502030.6,300.4005,294.7975,56.3452,55.84578
502045.5,297.1281,298.2452,56.05509,56.15462
502062.2,293.3348,301.8566,55.71326,56.47289
502081.2,289.4021,304.9253,55.35243,56.73919
502098.2,286.2749,307.7108,55.06073,56.9777
