Time Stamp(ms),Intersection,,Angle,
,x,y,x,y
938106.8,313.8691,236.9129,57.49437,49.8292
938127.3,313.5309,235.9616,57.46637,49.71553
938145.8,313.2587,235.0772,57.44381,49.60939
938163.2,313.1088,234.1051,57.43137,49.49217
938182.1,313.0794,233.0509,57.42893,49.36442
938200.1,313.0832,231.9925,57.42924,49.23548
938218.3,313.1356,230.9711,57.43359,49.11042
938235.2,313.132,229.8594,57.43329,48.97356
938255,312.9829,229.0983,57.42091,48.87944
938270.9,312.6896,228.2788,57.39653,48.77769
938291.1,312.3841,227.5408,57.37111,48.68571
938309.6,311.8583,226.9402,57.32726,48.61062
938329,311.1382,226.4821,57.26704,48.55318
938349.9,310.0957,225.8066,57.17952,48.46824
938369.2,308.7862,225.1249,57.06898,48.38225
938387.4,306.9753,224.4531,56.91503,48.29722
938405.6,305.1144,223.8726,56.75549,48.2235
938424.3,303.3046,223.2174,56.59902,48.14006
938443.2,301.579,222.5208,56.44862,48.05104
938463.2,299.7263,221.8507,56.28579,47.96512
938482.7,297.9411,221.1742,56.12758,47.87807
938501.1,295.9573,220.6354,55.95023,47.80855
938521.2,293.7791,219.898,55.75361,47.71308
938538.3,291.3616,219.248,55.53304,47.62865
938556.7,288.9715,218.5858,55.31251,47.54235
938573.8,286.0744,217.9389,55.04187,47.45776
938592.5,283.1118,217.1898,54.76129,47.35946
938611.6,279.9803,216.322,54.46041,47.24515
938631.8,276.5394,215.4656,54.12463,47.13183
938650.8,272.9565,214.5359,53.76911,47.00829
938670.1,268.327,213.3251,53.30066,46.84651
938689.9,264.1618,212.3666,52.87021,46.71775
938708.4,259.8473,211.4057,52.41514,46.58805
938722.7,254.8119,210.1311,51.87189,46.41504
938742.8,249.4161,208.7717,51.27482,46.22931
938760.6,243.5245,207.2336,50.60467,46.01762
938780.3,237.7588,205.5589,49.92984,45.78529
938799.6,232.6296,203.9879,49.31317,45.56557
938819,227.2487,202.1327,48.64922,45.30387
938838.4,222.3448,200.3071,48.0285,45.04395
938856.3,218.0775,198.601,47.4759,44.79891
938874.6,213.741,196.7244,46.90218,44.52694
938893.7,209.4792,194.6891,46.32613,44.22908
938910.6,205.0676,192.67,45.71677,43.93058
938932.1,200.8013,190.4494,45.11456,43.5988
938950.9,196.9511,188.0935,44.55993,43.24275
938969.1,193.3421,185.5582,44.03027,42.85489
938987.4,189.1606,182.9356,43.40454,42.44847
939005.9,185.3235,180.691,42.81873,42.09639
939023.4,181.5514,178.3775,42.23182,41.72938
939041.8,178.4323,176.1547,41.73812,41.37275
939058.6,175.4566,174.048,41.25993,41.03109
939078.3,172.3127,171.929,40.74698,40.68384
939096.8,169.5512,170.0891,40.28981,40.37935
939116.8,167.3329,168.3577,39.91803,40.09029
939135.4,165.1452,166.706,39.54737,39.81222
939153.1,163.3508,165.1466,39.24038,39.54762
939172.4,161.7133,163.705,38.95785,39.30119
939189.5,160.5334,162.0216,38.75287,39.01121
939209.5,159.6789,160.6836,38.60367,38.77902
939225.3,158.9995,159.6016,38.48461,38.59014
939244.7,158.3089,158.4228,38.36319,38.38323
939264.7,157.88,157.1528,38.28757,38.15898
939286,157.9861,156.2383,38.30629,37.99666
939299.8,158.0585,155.3192,38.31905,37.83277
939318.4,158.09,154.1791,38.32461,37.62848
939341.5,158.0657,153.1811,38.32032,37.4487
939355.8,158.0442,152.2783,38.31654,37.28534
939374,158.1446,151.3768,38.33424,37.12149
939391.1,158.4268,150.3804,38.38395,36.93958
939411.3,158.5752,149.4124,38.41006,36.76202
939428.2,158.7977,148.4235,38.44918,36.57975
939446.1,158.8645,147.2982,38.4609,36.37131
939466,158.8088,146.1923,38.45112,36.16536
939486.4,158.8114,144.9622,38.45159,35.93501
939503.8,158.7755,143.7642,38.44527,35.70937
939523.1,158.6217,142.5824,38.41823,35.48553
939539.8,158.6486,141.3751,38.42297,35.25555
939555.8,158.8696,140.1537,38.4618,35.02155
939574.9,159.3088,138.5893,38.53886,34.71989
939593,159.764,136.5343,38.61856,34.32024
939611.9,160.4978,134.7811,38.74665,33.97625
939630.5,161.6854,133.369,38.95301,33.69714
939649.4,162.6045,131.6561,39.11189,33.35612
939669.1,163.4582,129.5926,39.25882,32.94174
939687.9,164.5703,127.6114,39.4493,32.5402
939705.8,166.0726,125.6946,39.70498,32.14825
939723.4,167.5753,124.1334,39.95885,31.82651
939742.3,168.9578,122.6833,40.19075,31.52565
939757.8,170.8141,121.2082,40.49967,31.21759
939777.1,173.0746,119.8612,40.87203,30.93452
939796.4,175.6178,118.7214,41.286,30.69367
939813.6,178.2037,117.9104,41.70163,30.52157
939832.3,181.2311,117.5661,42.18148,30.44831
939851.2,184.266,117.446,42.65529,30.42274
939870.2,187.7839,117.6396,43.19564,30.46397
939888.8,191.3415,117.8733,43.73252,30.51367
939907.2,194.9351,118.2101,44.26524,30.58524
939924.7,198.3356,118.5598,44.7606,30.65941
939941.2,201.8157,118.8136,45.2589,30.71318
939960.1,205.4272,119.2448,45.76694,30.80441
939982.7,208.8129,119.8051,46.23495,30.92269
939997.9,211.8079,120.2013,46.64241,31.00614
940014.8,215.0934,120.6048,47.08244,31.09098
940036.2,218.2044,121.0473,47.4925,31.18385
940055.1,221.3361,121.4487,47.89894,31.26794
940073.1,224.4586,121.9316,48.29791,31.36892
940095.4,227.4889,122.4679,48.67924,31.48077
940109.4,230.1416,122.8489,49.00837,31.5601
940127.5,233.2354,123.3805,49.38682,31.67053
940146.1,236.0421,123.8567,49.72517,31.76925
940164.3,238.9923,124.5046,50.07582,31.90321
940185.3,241.9824,125.2156,50.42605,32.04978
940202.3,245.1153,125.9635,50.78753,32.20343
940222.9,248.0746,126.6583,51.12392,32.34574
940240.9,250.9077,127.5307,51.44145,32.52377
940261.1,253.9996,128.5116,51.78301,32.72309
940279.1,256.6269,129.3055,52.06923,32.88377
940294,259.574,130.1523,52.38599,33.05454
940316.3,262.372,130.9612,52.68258,33.21702
940335.9,265.6326,131.9812,53.02319,33.42106
940355.3,268.3834,132.8387,53.30643,33.59185
940372.8,271.1812,133.57,53.5907,33.73699
940390.9,274.0796,134.1651,53.88121,33.85472
940407.9,276.8959,134.7332,54.15968,33.9668
940430.4,279.7081,135.0949,54.43405,34.03803
940445.4,281.8297,135.3705,54.63864,34.09221
940460.6,284.1123,135.78,54.85649,34.17258
940477.9,286.5992,136.3044,55.09118,34.2753
940498.4,289.099,136.6766,55.32434,34.34803
940516.1,292.5905,137.2548,55.64547,34.4608
940543.6,294.1547,137.547,55.78765,34.51766
940557.3,296.0768,137.8478,55.96096,34.57613
940571.1,298.5739,138.2237,56.18381,34.64907
940592.6,300.8287,138.6147,56.38284,34.7248
940612.4,302.9427,138.9764,56.56757,34.79474
940631.3,304.9408,139.4713,56.74053,34.89024
940645.2,307.1609,139.9725,56.93087,34.98673
940664.9,309.3204,140.477,57.11415,35.08364
940685.8,311.365,141.028,57.28603,35.18919
940703.4,313.411,141.4099,57.45644,35.26219
940722.8,315.1699,141.6953,57.60167,35.31667
940736.3,316.9369,141.9109,57.74641,35.35779
940752.4,318.6325,142.1007,57.88424,35.39394
940764.2,320.2336,142.315,58.0134,35.43471
940777.3,321.8553,142.5321,58.14329,35.47597
940791.7,323.5548,142.6306,58.27841,35.49468
940806.7,325.1992,142.6386,58.40817,35.4962
940820.4,326.9121,142.6285,58.54232,35.49429
940834,328.5535,142.6089,58.66991,35.49056
940847.4,330.3631,142.678,58.80952,35.50369
940861.9,332.5808,142.7422,58.97908,35.51587
940880,334.3931,142.7855,59.11642,35.52408
940894.6,336.4242,142.8524,59.26904,35.53678
940911,338.3826,142.9771,59.41492,35.56042
940927.4,340.5981,143.2214,59.57845,35.60672
940947.6,342.4461,143.4874,59.71364,35.65705
940961.1,344.4266,143.792,59.85733,35.71462
940977.3,346.4762,144.0994,60.00473,35.77263
940994.1,348.5165,144.6085,60.15017,35.86853
941011.6,350.3921,144.983,60.28274,35.93892
941028.3,352.7593,145.5099,60.44855,36.03773
941055.3,354.997,146.0652,60.60374,36.14163
941068.1,356.6041,146.4955,60.71428,36.22194
941083.4,358.4588,146.9842,60.84092,36.31295
941096.8,360.3508,147.5571,60.96908,36.41936
941112.5,362.4953,148.4173,61.11311,36.57862
941131.5,364.4271,149.1809,61.24173,36.71943
941146.7,366.4229,150.0776,61.37352,36.88413
941164.3,368.5145,151.1043,61.51046,37.07183
941182.7,370.6991,151.9556,61.6522,37.22677
941196.9,372.7115,152.8715,61.78164,37.39276
941213,374.8441,153.7354,61.91762,37.54865
941231.5,376.6266,154.495,62.03036,37.68519
941246.1,378.5954,155.4177,62.15392,37.85037
941264.6,380.3653,156.2986,62.26414,38.00737
941280.7,382.1538,157.2457,62.37471,38.17544
941296.6,383.8327,158.1596,62.47776,38.33687
941313.1,385.347,159.033,62.57011,38.49049
941329.9,386.8545,159.9534,62.66148,38.65167
941346.6,388.4695,160.7907,62.75874,38.79766
941362.8,390.0361,161.6676,62.85247,38.94992
941381.1,391.2692,162.3634,62.92583,39.07028
941397.1,392.5899,163.122,63.00401,39.20103
941412,393.9901,163.8872,63.08642,39.33242
941429.1,395.2541,164.5704,63.16043,39.44933
941446.6,396.698,165.3185,63.2445,39.57688
941463,398.284,166.1225,63.33629,39.71345
941477.9,399.8859,166.8358,63.42841,39.83415
941496.3,401.6595,167.6018,63.52972,39.96331
941513.7,403.301,168.3854,63.62284,40.09493
941529.3,404.9265,169.2424,63.71446,40.2383
941545.3,406.7543,170.1366,63.81678,40.38725
941562.3,408.4578,170.945,63.91147,40.52134
941579.8,410.0005,171.7115,63.99668,40.64799
941595.3,411.8208,172.6708,64.09656,40.80581
941612.1,413.5384,173.6031,64.19015,40.95848
941630.5,415.2225,174.4839,64.2813,41.10207
941645.9,417.0558,175.4984,64.37985,41.26669
941662.4,418.8238,176.2899,64.47423,41.39455
941681.4,420.6422,177.249,64.57063,41.54881
941697.5,422.2856,178.0112,64.65715,41.67086
941710.9,424.1244,179.0346,64.75332,41.83405
941729.1,425.8235,179.9884,64.84158,41.98537
941746.6,427.4063,180.8221,64.92328,42.11707
941762.9,428.9928,181.8268,65.00468,42.27504
941779.4,430.466,182.8014,65.07982,42.42753
941795.7,431.9395,183.9134,65.15456,42.60062
941813.8,433.1412,184.7761,65.21519,42.73424
941830.1,434.3572,185.7115,65.27627,42.87847
941846.9,435.5639,186.5968,65.3366,43.01437
941863.1,436.5955,187.7333,65.38796,43.18794
941882.3,437.3544,188.6536,65.42561,43.32777
941897.7,437.8906,189.513,65.45216,43.45778
941912.1,438.3844,190.5581,65.47655,43.61512
941934.4,438.8388,191.4588,65.49895,43.75006
941951.4,439.2311,192.331,65.51827,43.88016
941966.4,439.5297,193.3593,65.53295,44.03282
941982.6,439.6443,194.4497,65.53858,44.19385
941997.1,439.4732,195.7945,65.53018,44.39123
942013.7,439.3477,197.2382,65.52401,44.60166
942034.4,439.0102,198.8323,65.5074,44.83224
942046.6,438.6864,200.5879,65.49145,45.08409
942064.3,438.1938,202.2666,65.46714,45.32283
942081.9,437.4837,204.344,65.43202,45.61553
942099.5,436.7035,206.3976,65.39333,45.90188
942114.7,435.765,208.6741,65.34663,46.21593
942132.8,434.6653,210.7285,65.2917,46.49626
942149.5,433.726,212.4569,65.2446,46.72991
942166.9,432.5577,214.3301,65.18578,46.98085
942184.9,431.5464,216.0548,65.13466,47.20985
942199.1,430.4367,217.7024,65.07832,47.42677
942217.3,429.5031,219.0281,65.03075,47.60002
942233.9,428.5826,220.3612,64.98368,47.77309
942250.8,427.4848,221.9628,64.92732,47.97951
942266.2,426.3475,223.552,64.86868,48.1827
942283.4,425.2895,224.8965,64.8139,48.35337
942297.9,424.033,226.3421,64.74856,48.5356
942316.8,422.7086,227.8818,64.67934,48.72826
942333.5,421.3696,229.1333,64.60899,48.88378
942350.3,419.8959,230.3526,64.53114,49.03437
942367.1,418.3717,231.7547,64.45016,49.20642
942383.4,417.0169,232.9751,64.37777,49.3552
942397.6,415.5958,234.2267,64.30142,49.50686
942415.2,413.9942,235.4845,64.21488,49.65833
942433.1,412.4032,236.8121,64.12836,49.81719
942452.3,411.0404,237.8942,64.05383,49.9459
942467.1,409.7476,238.878,63.98275,50.06233
942483.1,408.5705,239.8843,63.91772,50.18084
942500.3,407.4294,240.9406,63.85438,50.30462
942517,406.4405,242.0642,63.79926,50.43555
942530.7,405.3644,243.2857,63.73904,50.5771
942550.6,404.4243,244.4688,63.68622,50.71339
942566.8,403.4348,245.9765,63.63041,50.88593
942586.1,402.7857,247.153,63.59367,51.01968
942599.3,402.0284,248.6151,63.5507,51.18484
942616.5,401.3729,250.154,63.51339,51.3574
942633.9,400.8463,251.6278,63.48336,51.52146
942649.9,400.3712,253.3033,63.4562,51.70653
942667.4,399.8979,254.8943,63.4291,51.88089
942684.6,399.4585,256.6141,63.40389,52.06785
942699,399.1129,258.1487,63.38403,52.23336
942716,398.7138,259.8849,63.36106,52.41914
942730.5,398.3206,261.8132,63.33841,52.62367
942747.9,397.9687,263.747,63.31809,52.82687
942765.3,397.7599,265.3912,63.30603,52.99816
942781.4,397.6273,267.2469,63.29836,53.18987
942798.8,397.5456,269.2642,63.29363,53.39633
942818.3,397.46,271.205,63.28868,53.59309
942834.1,397.4391,273.2608,63.28746,53.79955
942849.9,397.4724,275.1721,63.28939,53.98967
942866.3,397.4964,277.2834,63.29078,54.19771
942884.9,397.4699,279.2877,63.28925,54.39326
942900.6,397.4362,281.2983,63.2873,54.58759
942916.5,397.3654,283.1826,63.2832,54.76804
942932.8,397.2839,285.4302,63.27848,54.9812
942951.1,397.15,287.4565,63.27072,55.17145
942968.3,396.938,289.447,63.25843,55.35658
942984.4,396.6964,291.2009,63.24441,55.51829
942999.9,396.327,293.0227,63.22295,55.68486
943017.8,395.9863,294.9135,63.20312,55.85625
943031.7,395.6354,296.5954,63.18267,56.00745
943048.7,395.2821,298.1023,63.16206,56.14192
943067.5,395.0315,299.2966,63.14742,56.24783
943084.3,394.7959,300.4362,63.13364,56.34834
943100.7,394.5575,301.6952,63.11969,56.45877
943117.1,394.287,302.9635,63.10384,56.56939
943130.9,393.9264,304.4492,63.08268,56.69812
943149.8,393.6469,305.7239,63.06626,56.80789
943166.6,393.2054,307.0421,63.04029,56.92073
943184.4,392.74,308.2806,63.01286,57.02612
943202.1,392.208,309.3395,62.98145,57.11576
943217.4,391.4211,310.3841,62.93485,57.20377
943235.5,390.5776,311.3791,62.88474,57.28721
943251.8,389.6639,312.2065,62.83026,57.35631
943267.9,388.5222,313.0109,62.7619,57.42324
943284.9,387.4532,313.8132,62.69761,57.48975
943302.4,386.4244,314.5461,62.63547,57.5503
943317.2,385.2523,315.1203,62.56435,57.59759
943333.5,384.0992,315.6807,62.49406,57.64363
943351.7,382.9547,316.086,62.42396,57.67686
943369.2,381.6909,316.5919,62.34618,57.71825
943387.6,380.4585,316.9488,62.26992,57.74739
943402.1,379.1473,317.4477,62.18838,57.78804
943420.9,377.9385,317.8143,62.11281,57.81786
943436.2,376.5115,318.2228,62.0231,57.85103
943454.6,375.1712,318.5892,61.93837,57.88073
943469.4,373.7958,318.9474,61.85093,57.90971
943485.6,372.255,319.0857,61.75237,57.92089
943504.8,370.8611,319.2306,61.66266,57.9326
943519.2,369.4681,319.3782,61.57249,57.94451
943534.6,367.7204,319.5092,61.45861,57.95508
943552.8,366.0309,319.6647,61.34772,57.96762
943569.8,364.2892,319.6152,61.23259,57.96362
943587.3,362.6853,319.4969,61.1258,57.95408
943603.8,361.1682,319.3155,61.02413,57.93945
943618.8,359.4295,319.1572,60.9068,57.92666
943634,357.7018,319.0043,60.78936,57.91431
943651.3,355.7731,318.8396,60.65722,57.90099
943671.2,353.9633,318.5539,60.53223,57.87787
943688.8,352.4281,318.324,60.42545,57.85923
943703.5,350.5901,318.1766,60.29668,57.84728
943720.1,348.7639,318.0424,60.16772,57.83639
943737.2,346.9946,317.9279,60.0418,57.8271
943753.3,345.0142,317.7101,59.89972,57.80939
943770.2,342.8467,317.5602,59.74281,57.7972
943790.2,341.0384,317.4091,59.61075,57.7849
943803,339.2132,317.2797,59.47641,57.77436
943818.9,337.3268,317.2239,59.33643,57.76982
943834.7,335.0424,317.1352,59.16536,57.76259
943853.4,333.2224,316.8785,59.02783,57.74165
943868.5,331.1122,316.6115,58.86698,57.71985
943885.9,329.0474,316.4377,58.70813,57.70565
943901.4,327.0154,316.3203,58.55038,57.69604
943917.3,324.826,316.3033,58.3788,57.69464
943935.3,322.6163,316.2386,58.20392,57.68935
943953.6,320.7274,316.1009,58.05306,57.67808
943969.1,318.5004,315.9544,57.87354,57.66608
943985.3,316.2318,315.839,57.6888,57.65662
944003.9,314.2757,315.6044,57.52798,57.63737
944019.8,312.4598,315.3887,57.37741,57.61966
944034.8,310.484,315.1029,57.21217,57.59616
944052.3,308.6061,314.9457,57.05373,57.58323
944068.4,306.7149,314.7628,56.89278,57.56816
944086.8,304.9175,314.4564,56.73853,57.54289
944102.5,303.2778,314.0633,56.59669,57.51043
944117.9,301.6573,313.6547,56.45546,57.47663
944134,299.762,313.3584,56.28894,57.45207
944152.1,298.0927,312.9849,56.14106,57.42108
944168.4,296.5322,312.5928,56.00179,57.38848
944185,294.9407,312.1375,55.85871,57.35056
944201.1,293.2819,311.7549,55.70845,57.31862
944218.8,291.8139,311.491,55.57449,57.29657
944234.7,290.1813,311.1535,55.42445,57.26833
944252.8,288.9099,310.7894,55.30679,57.2378
944268.6,287.5658,310.2877,55.18166,57.19567
944284.8,286.3271,309.8004,55.06563,57.15464
944301.3,284.9461,309.2766,54.93548,57.11045
944319.4,283.766,308.7972,54.82359,57.06991
944334.6,282.4289,308.1513,54.69606,57.01515
944352.3,281.3219,307.5963,54.58986,56.96796
944367.8,280.2344,306.7844,54.485,56.89872
944386,279.3767,306.1229,54.40191,56.84211
944400.6,278.3474,305.3012,54.30175,56.77156
944418.6,277.4204,304.6118,54.21113,56.71216
944447.8,276.131,303.6073,54.08441,56.62528
944461.7,275.4428,302.9064,54.01646,56.56441
944473.2,274.8307,302.0554,53.95584,56.49026
944485.8,273.981,301.0164,53.8714,56.39931
944503.3,273.2535,300.0928,53.79881,56.31811
944519.3,272.4302,299.1333,53.71638,56.23338
944537.7,271.732,298.2012,53.64621,56.15071
944553,271.1216,297.1561,53.58469,56.05759
944569.6,270.5557,296.0942,53.52747,55.96252
944587.3,270.0131,294.8971,53.47247,55.85477
944602.3,269.4466,293.8815,53.4149,55.76289
944620.9,268.937,292.4794,53.36298,55.63533
944638.1,268.627,291.0362,53.33133,55.50316
944652.4,268.3484,289.4211,53.30285,55.35418
944668.9,268.1315,287.5805,53.28064,55.18303
944685.9,267.8,285.9052,53.24667,55.02596
944702.6,267.5434,284.059,53.22033,54.85142
944717.4,267.4558,281.7558,53.21133,54.63155
944733.8,267.4058,279.5171,53.20619,54.41553
944752.3,267.4138,277.5898,53.20701,54.22772
944768.3,267.4575,275.7189,53.21151,54.04375
944786.1,267.4389,273.5299,53.2096,53.82642
944802.8,267.5506,271.4995,53.22107,53.6228
944819.2,267.6721,269.6198,53.23355,53.43252
944834.8,267.7733,267.8341,53.24393,53.25017
944850.9,267.8474,265.9182,53.25153,53.05278
944871.1,267.9042,264.2104,53.25735,52.87528
944884.6,267.9763,262.2861,53.26475,52.67354
944902.5,267.9994,260.5238,53.26711,52.48712
944918.8,267.9642,258.9377,53.2635,52.31798
944934.1,267.784,257.0303,53.24503,52.11286
944952.4,267.4378,255.3585,53.20949,51.9315
944969.1,267.052,253.7087,53.1698,51.75108
944986.6,266.449,252.187,53.10764,51.58339
945003.1,265.7653,250.8237,53.03694,51.43209
945021.4,264.8907,249.5794,52.94616,51.29312
945037.4,263.8117,248.5296,52.83363,51.17522
945054.4,262.7365,247.4645,52.72092,51.05497
945071.8,261.4865,246.7958,52.58915,50.97916
945088.1,260.3002,246.1857,52.46336,50.90977
945103.9,259.0013,245.7095,52.32479,50.85547
945118.8,257.4983,245.2422,52.16337,50.80206
945136.9,255.8885,244.6577,51.98916,50.73508
945154.2,253.9263,244.1611,51.77497,50.67802
945172.3,252.1078,243.7138,51.57463,50.62651
945188.1,250.0554,243.3882,51.34639,50.58895
945203.1,247.7545,243.0807,51.08777,50.55341
945219.3,245.4977,242.6884,50.83127,50.508
945235.6,243.1671,242.3848,50.5634,50.47279
945252.5,240.6167,242.1685,50.26672,50.44767
945269.6,238.243,241.9175,49.98724,50.41851
945287.4,235.9412,241.4836,49.71309,50.36798
945303.9,233.7389,241.0048,49.44786,50.31211
945322.1,231.3111,240.3855,49.15211,50.23964
945339.4,229.1694,239.7922,48.88824,50.17002
945356,226.6794,239.0819,48.57793,50.0864
945375.1,224.6356,238.2972,48.32034,49.99366
945389.4,222.4073,237.5258,48.0365,49.90216
945406.4,220.3239,236.7336,47.76826,49.80782
945423.1,217.9534,235.8558,47.45965,49.70287
945440.6,215.8553,234.8119,47.18345,49.57745
945456.4,213.7394,233.8682,46.90197,49.46352
945472.9,211.5846,232.8531,46.61224,49.34037
945490.6,209.3477,231.724,46.30815,49.20266
945507.2,206.9788,230.4499,45.9824,49.04634
945522.6,204.5321,229.2749,45.64187,48.90131
945541,202.0682,228.2221,45.29473,48.77064
945557.5,199.9469,227.5314,44.9924,48.68455
945573.4,197.885,226.9585,44.69545,48.6129
945589.9,195.9414,226.5023,44.41271,48.55571
945606.1,194.0535,225.9151,44.13544,48.48191
945623.7,192.3911,225.405,43.88911,48.41762
945639.6,190.8001,224.8708,43.65144,48.35012
945658.3,189.5746,224.4392,43.46707,48.29545
945674.6,188.5572,224.02,43.31316,48.24224
945690.4,187.9076,223.3937,43.21447,48.16254
945709,187.3423,222.8686,43.12833,48.09552
945723.9,187.0855,222.2837,43.08913,48.02066
945738.4,187.1396,221.6001,43.09739,47.93291
945755.2,187.3657,220.9338,43.1319,47.84708
945772.9,187.575,220.2872,43.16383,47.76352
945790.1,188.0158,219.5741,43.23093,47.67104
945806.8,188.6141,218.9288,43.32178,47.58708
