Time Stamp(ms),Intersection,,Angle,
,x,y,x,y
1011201,295.3214,228.8123,55.89303,48.84398
1011217,295.2454,228.4327,55.88618,48.79683
1011233,295.2182,227.9708,55.88374,48.73935
1011254,295.1777,227.5876,55.88008,48.69156
1011278,295.201,227.1764,55.88219,48.64017
1011293,295.1946,226.8786,55.88161,48.6029
1011303,295.202,226.4339,55.88227,48.54713
1011319,295.0744,226.1919,55.87077,48.51672
1011333,294.7451,226.217,55.84105,48.51988
1011352,294.4449,226.1967,55.81392,48.51733
1011369,293.9362,226.1459,55.76786,48.51094
1011384,293.4522,226.0683,55.72393,48.50119
1011401,292.842,226.005,55.6684,48.49323
1011417,292.3322,225.881,55.62189,48.47762
1011433,291.6886,225.4853,55.56302,48.42775
1011451,291.1178,224.9922,55.51065,48.36547
1011470,290.6094,224.5972,55.4639,48.31548
1011486,290.0575,224.3922,55.41302,48.28949
1011502,289.3727,224.2405,55.3497,48.27025
1011520,288.7816,224.2822,55.29489,48.27553
1011533,287.968,224.6862,55.21918,48.32676
1011552,287.1936,225.1977,55.14686,48.39145
1011569,286.2983,225.9771,55.06293,48.48971
1011585,285.131,227.1915,54.95295,48.64206
1011600,283.8509,228.4914,54.83165,48.80413
1011616,282.3272,229.9887,54.68633,48.98952
1011633,280.2481,231.9775,54.48632,49.23365
1011651,278.1198,233.748,54.27953,49.44896
1011668,275.3102,236.1125,54.00335,49.73361
1011685,272.5524,237.9395,53.72863,49.95128
1011700,269.6338,239.5034,53.43394,50.13605
1011717,266.444,241.0533,53.10713,50.31777
1011735,263.0985,242.8799,52.75894,50.53018
1011758,260.4141,244.4349,52.47547,50.7095
1011768,257.2096,246.4184,52.13223,50.93626
1011784,253.9596,248.3816,51.77862,51.15854
1011800,250.7993,250.3415,51.42938,51.37834
1011818,247.7615,252.2543,51.08857,51.59084
1011833,244.3834,254.4008,50.70358,51.82695
1011851,241.486,256.0184,50.36826,52.00327
1011868,238.7248,257.7224,50.04424,52.18751
1011885,236.0232,259.418,49.72292,52.36934
1011901,233.2712,261.2821,49.39116,52.56753
1011921,230.771,263.1865,49.08583,52.76816
1011936,228.0721,265.5519,48.75196,53.01483
1011952,225.5345,267.7495,48.43396,53.24149
1011968,223.0077,270.0701,48.11329,53.47826
1011984,220.3492,272.867,47.77154,53.76015
1012001,217.7759,275.5942,47.43641,54.03143
1012018,215.4131,278.1449,47.12487,54.28199
1012034,213.0664,280.4518,46.81182,54.506
1012054,210.8118,282.4948,46.50757,54.70236
1012070,208.498,284.6896,46.19175,54.91121
1012086,206.2214,286.9632,45.87743,55.12529
1012101,203.98,289.2715,45.56445,55.34033
1012120,201.6517,291.7545,45.23561,55.56905
1012136,199.5098,293.9484,44.9297,55.76896
1012152,197.2434,296.3279,44.60242,55.98348
1012169,195.308,298.5748,44.31998,56.18389
1012184,193.3884,300.9416,44.03713,56.39275
1012201,191.4659,303.2983,43.75113,56.59847
1012219,189.8967,305.2061,43.51564,56.76338
1012234,188.0461,307.6235,43.23555,56.97028
1012252,186.5335,310.0874,43.00467,57.17881
1012270,185.2157,312.2751,42.80211,57.36203
1012285,183.7752,314.6549,42.57916,57.55927
1012302,182.2817,316.8572,42.34631,57.73992
1012321,180.6403,319.0049,42.08839,57.91436
1012338,179.202,320.8904,41.86066,58.06612
1012353,177.7007,322.7595,41.62119,58.21531
1012371,176.3795,324.2849,41.40899,58.33614
1012387,175.0548,325.7055,41.19481,58.44793
1012403,173.7566,327.2136,40.98356,58.56583
1012420,172.7637,328.3907,40.82106,58.6573
1012438,171.8053,329.6566,40.66345,58.75515
1012454,171.1761,330.578,40.55957,58.82602
1012470,170.849,331.0538,40.50545,58.86251
1012488,170.5536,331.5472,40.45649,58.90026
1012505,170.469,332.0207,40.44245,58.93641
1012523,170.4721,332.5273,40.44296,58.97501
1012540,170.7088,332.8681,40.48221,59.00093
1012556,170.9058,333.1815,40.51485,59.02473
1012571,171.0564,333.4961,40.53978,59.04858
1012589,171.2913,333.7861,40.57862,59.07055
1012607,171.379,334.1381,40.59311,59.09716
1012621,171.4468,334.4272,40.6043,59.11899
1012638,171.4754,334.7504,40.60902,59.14337
1012657,171.4474,335.0729,40.60441,59.16766
1012674,171.3541,335.2389,40.589,59.18014
1012689,171.1829,335.4377,40.5607,59.19508
1012706,170.9877,335.6369,40.52842,59.21004
1012723,170.725,335.7452,40.4849,59.21817
1012739,170.4575,336.0422,40.44054,59.24044
1012756,170.1982,336.2306,40.39749,59.25455
1012773,169.8502,336.4456,40.33961,59.27064
1012791,169.5707,336.6031,40.29306,59.28242
1012807,169.3077,336.8763,40.24921,59.30283
1012822,169.0386,337.0699,40.20427,59.31728
1012840,168.8235,337.1772,40.16829,59.32528
1012855,169.2035,336.392,40.2318,59.26663
1012873,169.1875,336.421,40.22913,59.26881
1012890,169.1229,336.456,40.21834,59.27142
1012904,169.0649,336.3643,40.20866,59.26456
1012921,168.9945,336.3625,40.1969,59.26442
1012939,168.9969,336.2387,40.19729,59.25516
1012955,168.9892,336.1133,40.196,59.24577
1012972,168.9725,335.8965,40.19322,59.22952
1012988,168.9148,335.7077,40.18357,59.21536
1013005,168.8685,335.6985,40.17582,59.21467
1013026,168.7898,335.5835,40.16267,59.20603
1013039,168.7303,335.5316,40.1527,59.20214
1013056,168.6056,335.4595,40.13182,59.19672
1013081,168.4721,335.3166,40.10947,59.18598
1013121,168.2237,334.972,40.06781,59.16006
1013134,168.0668,334.7743,40.04147,59.14517
1013144,167.9336,334.7211,40.01911,59.14116
1013154,167.7035,334.541,39.98042,59.12758
1013173,167.5137,334.3439,39.94847,59.11271
1013184,167.2674,334.2977,39.90698,59.10922
1013195,167.0317,334.1045,39.86723,59.09462
1013208,166.8385,333.9255,39.83461,59.08109
1013223,166.6347,333.8,39.80017,59.07159
1013238,166.4584,333.6325,39.77034,59.05892
1013255,166.242,333.3564,39.7337,59.03799
1013273,166.1949,333.283,39.72572,59.03242
1013291,166.1541,332.9918,39.7188,59.01032
1013309,166.1065,332.832,39.71073,58.99819
1013321,166.0084,332.7667,39.6941,58.99322
1013339,165.9279,332.6113,39.68044,58.9814
1013354,165.833,332.3679,39.66433,58.96288
1013372,165.8088,332.1313,39.66022,58.94485
1013389,165.7858,331.847,39.65631,58.92316
1013405,165.8052,331.5152,39.65961,58.89782
1013423,165.707,331.2336,39.64293,58.87628
1013440,165.6635,330.9869,39.63555,58.85738
1013457,165.5472,330.7224,39.61579,58.8371
1013475,165.5168,330.5602,39.61062,58.82465
1013492,165.4639,330.2958,39.60162,58.80435
1013509,165.3988,330.0132,39.59054,58.78262
1013523,165.2724,329.8669,39.56904,58.77135
1013541,165.1996,329.639,39.55663,58.75379
1013556,165.1778,329.3496,39.55293,58.73148
1013573,165.1137,329.0512,39.542,58.70842
1013591,165.1017,328.8227,39.53997,58.69076
1013608,165.1245,328.5009,39.54385,58.66584
1013624,165.1843,328.2205,39.55403,58.64411
1013640,165.146,327.975,39.5475,58.62505
1013657,165.0498,327.6792,39.53112,58.60207
1013673,165.0068,327.2377,39.52379,58.56771
1013693,164.9904,326.9424,39.521,58.54469
1013708,165.0332,326.4647,39.52829,58.50738
1013726,165.0912,325.932,39.53818,58.46568
1013741,165.1012,325.4475,39.53988,58.42767
1013758,165.1066,324.8834,39.54079,58.38332
1013774,165.1783,324.0472,39.553,58.31736
1013793,165.2657,323.349,39.56789,58.2621
1013810,165.4086,322.4999,39.59222,58.19467
1013826,165.4991,321.3953,39.6076,58.10654
1013842,165.6492,320.2263,39.63311,58.01282
1013859,165.8363,318.9665,39.66489,57.91125
1013876,166.1674,317.5643,39.72105,57.79753
1013894,166.5628,316.3656,39.788,57.69975
1013910,167.0204,314.9478,39.86532,57.58339
1013929,167.4308,313.4962,39.93452,57.4635
1013942,167.9806,311.8602,40.02701,57.32742
1013958,168.5523,310.2277,40.12289,57.19062
1013974,169.0546,308.5596,40.20694,57.04979
1013993,169.7174,306.6015,40.31751,56.88309
1014012,170.2734,304.641,40.40998,56.71468
1014029,170.7995,302.8858,40.49725,56.56262
1014043,171.4039,300.6545,40.59722,56.36754
1014059,172.0001,298.2582,40.69555,56.15578
1014077,172.4974,296.0787,40.77734,55.96113
1014093,172.9261,293.6328,40.84769,55.74033
1014112,173.2687,291.4522,40.90381,55.54136
1014126,173.5119,288.8547,40.94359,55.30167
1014143,173.7704,286.1361,40.98582,55.04768
1014160,173.9484,283.467,41.01486,54.79514
1014176,174.1239,280.5256,41.04347,54.51313
1014194,174.2724,277.9403,41.06766,54.262
1014210,174.4519,274.6219,41.09687,53.93512
1014227,174.7119,271.3467,41.13915,53.60739
1014242,175.0441,268.1401,41.19308,53.28153
1014259,175.6881,264.4693,41.29739,52.90228
1014277,176.3757,260.7616,41.40839,52.51237
1014293,177.1256,257.3172,41.529,52.14383
1014309,178.2051,253.1881,41.70185,51.69386
1014328,179.5289,248.8515,41.91257,51.21143
1014343,180.8405,245.1351,42.11997,50.78979
1014359,182.1341,241.7182,42.32321,50.39531
1014375,183.7708,237.6537,42.57847,49.91736
1014392,185.1585,234.1495,42.79329,49.49753
1014409,186.6419,230.5573,43.02127,49.05956
1014426,188.3072,226.7797,43.27521,48.59051
1014442,189.8459,223.0887,43.50798,48.12364
1014459,191.2783,219.6204,43.72307,47.67706
1014478,192.7365,215.8251,43.94045,47.17946
1014496,193.8784,212.5232,44.10959,46.73883
1014511,195.0213,209.1485,44.2779,46.28092
1014527,196.1182,205.5963,44.43855,45.7905
1014544,197.1651,202.088,44.59104,45.29753
1014561,198.224,198.7555,44.74447,44.82118
1014576,199.2083,195.4428,44.88638,44.33974
1014593,200.2426,192.3217,45.03472,43.87878
1014611,201.3369,189.5489,45.19085,43.4632
1014630,202.5458,187.0824,45.36235,43.08865
1014646,203.8176,184.9106,45.54165,42.75502
1014660,205.0343,182.4893,45.71212,42.37878
1014676,206.4543,180.3436,45.90975,42.04155
1014693,207.9632,178.3867,46.11823,41.73085
1014710,209.5541,176.5312,46.33635,41.43343
1014726,211.4632,174.7209,46.59583,41.14061
1014746,213.2838,173.4306,46.84098,40.9303
1014758,215.3272,172.1459,47.11348,40.71954
1014778,217.6293,170.9154,47.41719,40.51644
1014795,219.8677,169.8313,47.70915,40.33648
1014812,222.3629,168.6547,48.03082,40.14005
1014830,224.3644,167.6427,48.28596,39.97019
1014845,226.6617,166.6225,48.57571,39.7981
1014862,228.9341,165.6431,48.85909,39.63208
1014878,230.9951,164.8109,49.11336,39.49038
1014894,233.1039,164.1469,49.37085,39.3769
1014912,235.1039,163.7735,49.61259,39.31293
1014928,237.1212,163.3144,49.85402,39.23411
1014946,239.005,162.9121,50.07732,39.16491
1014963,240.8815,162.4196,50.2977,39.07998
1014979,242.4382,161.9516,50.47898,38.9991
1014995,244.1379,161.3649,50.67535,38.89744
1015012,245.5258,160.8542,50.83448,38.80872
1015029,246.9441,160.3938,50.99599,38.72854
1015046,248.2188,159.9315,51.14019,38.64783
1015066,249.6042,159.5585,51.29591,38.5826
1015079,250.8495,159.3187,51.43497,38.5406
1015093,252.3469,159.0643,51.60107,38.49598
1015112,253.7351,158.858,51.75399,38.45976
1015129,255.2033,158.7275,51.91459,38.43684
1015145,256.8844,158.8787,52.0971,38.46339
1015163,258.4629,158.9728,52.2671,38.47993
1015179,260.2282,159.2253,52.4557,38.52422
1015195,262.0355,159.5345,52.64713,38.57841
1015212,263.9443,159.9511,52.8475,38.65126
1015229,266.163,160.6966,53.07809,38.78129
1015246,268.3753,161.579,53.3056,38.93457
1015264,270.5383,162.4342,53.52571,39.08251
1015278,273.0224,163.7122,53.77571,39.30242
1015294,275.519,164.9767,54.024,39.51866
1015311,278.4178,166.4819,54.30862,39.77432
1015329,280.906,167.833,54.54982,40.0022
1015347,283.7052,169.4601,54.81781,40.27462
1015364,286.1807,170.8368,55.05187,40.50342
1015381,288.5215,172.092,55.27072,40.71069
1015396,290.9421,173.3269,55.49451,40.91332
1015412,293.4668,174.6785,55.72525,41.13372
1015431,295.834,175.9186,55.93915,41.33463
1015447,297.9492,176.8943,56.1283,41.49184
1015464,300.1742,177.9963,56.32528,41.66849
1015484,302.2632,179.0729,56.50839,41.84013
1015497,304.1215,180.0847,56.6698,42.00062
1015513,306.0738,181.2428,56.83791,42.18332
1015530,307.9202,182.3906,56.99551,42.36334
1015548,309.7421,183.3644,57.14973,42.51528
1015566,311.6984,184.4293,57.31391,42.6806
1015580,313.6066,185.5853,57.47264,42.85906
1015597,315.2142,186.6043,57.60532,43.01552
1015613,316.9941,187.8091,57.75108,43.19948
1015630,318.654,189.0767,57.88597,43.39185
1015648,320.2587,190.28,58.01543,43.57333
1015664,321.8085,191.4948,58.13956,43.75544
1015684,323.4492,192.628,58.27004,43.92434
1015699,324.7391,193.5872,58.37196,44.06656
1015713,326.2594,194.5753,58.49132,44.21234
1015730,327.5775,195.5554,58.59416,44.35622
1015748,328.879,196.4209,58.69511,44.48272
1015764,330.1471,197.2836,58.79292,44.60825
1015781,331.3679,198.1144,58.88655,44.72863
1015797,332.5735,198.8564,58.97853,44.83572
1015815,333.8003,199.5373,59.07162,44.93365
1015833,334.844,200.1738,59.15042,45.02489
1015849,335.9324,200.7782,59.23221,45.11126
1015866,336.9172,201.3438,59.30589,45.19184
1015882,337.9068,201.9246,59.3796,45.27436
1015898,338.8771,202.4447,59.45156,45.34804
1015914,339.894,202.9305,59.52665,45.4167
1015929,340.934,203.4446,59.6031,45.48917
1015947,341.9103,203.9327,59.67455,45.55781
1015964,342.882,204.4415,59.74537,45.62918
1015980,343.9695,204.8604,59.82427,45.68781
1015999,345.0934,205.2914,59.90543,45.748
1016013,346.1853,205.6911,59.98389,45.8037
1016030,347.1991,206.0698,60.05641,45.85637
1016046,348.2119,206.4934,60.12854,45.91517
1016062,349.6572,206.9689,60.23093,45.98103
1016092,350.8314,207.394,60.31364,46.03978
1016105,351.5525,207.6108,60.36423,46.06969
1016114,352.4871,207.8241,60.42957,46.09908
1016130,353.4631,208.097,60.49752,46.13665
1016148,354.5958,208.3898,60.57602,46.1769
1016166,355.7459,208.5593,60.65535,46.20017
1016185,356.679,208.7178,60.71942,46.22192
1016198,357.6878,208.895,60.7884,46.2462
1016230,359.3802,209.2922,60.90347,46.30056
1016243,360.1352,209.3853,60.95453,46.31329
1016255,360.8103,209.4553,61.00005,46.32286
1016263,361.8787,209.6622,61.07182,46.35111
1016283,362.9908,209.8019,61.1462,46.37018
1016306,364.0661,209.9398,61.21777,46.38898
1016321,364.9867,210.0315,61.27879,46.40147
1016334,365.8478,210.0931,61.33566,46.40987
1016348,366.8978,210.2065,61.40472,46.4253
1016365,367.892,210.2621,61.46983,46.43287
1016381,368.9084,210.3471,61.53611,46.44443
1016399,369.9478,210.3531,61.6036,46.44525
1016415,371.1107,210.4102,61.67876,46.45302
1016431,372.2525,210.4211,61.75221,46.45449
1016448,373.433,210.4187,61.82777,46.45417
1016465,374.6234,210.3763,61.90361,46.44841
1016482,375.9535,210.3389,61.98788,46.44332
1016499,376.9969,210.3395,62.05367,46.44341
1016514,378.2419,210.3247,62.13181,46.44139
1016531,379.444,210.2705,62.20687,46.43402
1016548,380.7668,210.202,62.28904,46.42469
1016565,382.0026,210.1451,62.36539,46.41694
1016580,383.2624,210.0874,62.44284,46.40908
1016595,384.8283,210.0235,62.53855,46.40039
1016616,386.146,210.0205,62.61861,46.39997
1016630,387.58,209.8644,62.70525,46.3787
1016647,388.9615,209.7922,62.78824,46.36885
1016665,390.3314,209.7136,62.87008,46.35814
1016682,391.6894,209.6685,62.95075,46.35198
1016700,393.1097,209.582,63.03465,46.34017
1016715,394.4341,209.4761,63.11246,46.3257
1016731,395.7635,209.3098,63.19014,46.30297
1016751,397.1442,209.1653,63.27039,46.28321
1016780,399.2693,208.8264,63.39302,46.23681
1016796,400.4228,208.6139,63.45915,46.20766
1016811,401.6358,208.5431,63.52837,46.19794
1016825,402.6985,208.4351,63.58873,46.18312
1016835,403.6668,208.3152,63.64351,46.16665
1016849,404.9686,208.1413,63.71682,46.14275
1016869,406.2032,207.9677,63.786,46.11886
1016884,407.248,207.849,63.84429,46.10252
1016899,408.2762,207.7256,63.90141,46.08551
1016914,409.3746,207.5677,63.96218,46.06375
1016931,410.4647,207.4727,64.02222,46.05064
1016948,411.4465,207.3969,64.07608,46.04018
1016965,412.4665,207.3333,64.13181,46.03139
1016981,413.4733,207.2458,64.18661,46.01932
1016999,414.4175,207.2039,64.23781,46.01352
1017016,415.4195,207.2466,64.29193,46.01942
1017032,416.4828,207.2581,64.34912,46.021
1017051,417.389,207.3056,64.39769,46.02757
1017067,418.2798,207.4803,64.44526,46.05169
1017085,419.2349,207.6307,64.49608,46.07243
1017101,420.0755,207.795,64.54066,46.09507
1017118,420.9267,207.9644,64.58564,46.1184
1017134,421.749,208.1369,64.62895,46.14214
1017152,422.48,208.3254,64.66735,46.16805
1017168,423.0997,208.5338,64.69981,46.19667
1017184,423.8172,208.6338,64.7373,46.21039
1017201,424.5132,208.7672,64.77357,46.22869
1017217,425.1901,208.8144,64.80875,46.23515
1017234,425.7994,208.8816,64.84033,46.24436
1017251,426.4809,208.9309,64.87557,46.25112
1017270,427.1011,208.9713,64.90757,46.25665
1017286,427.7291,209.0647,64.93988,46.26944
1017299,428.4066,209.1081,64.97466,46.27539
1017316,429.1212,209.1263,65.01124,46.27787
1017333,429.8006,209.2117,65.04593,46.28957
1017351,430.4762,209.2825,65.08034,46.29924
1017369,431.1627,209.4525,65.1152,46.32248
1017383,431.9339,209.6412,65.15427,46.34826
1017402,432.6425,209.8726,65.19006,46.37982
1017419,433.2,210.0145,65.21815,46.39916
1017432,433.8713,210.2752,65.2519,46.43465
1017453,434.5794,210.5522,65.2874,46.47232
1017471,435.2214,210.7294,65.3195,46.49638
1017487,435.9001,210.9207,65.35336,46.52234
1017501,436.5254,211.0912,65.38448,46.54546
1017517,437.2398,211.2127,65.41994,46.56192
1017533,437.9272,211.4867,65.45396,46.599
1017550,438.7025,211.5902,65.49224,46.613
1017568,439.4672,211.7133,65.52988,46.62964
1017586,440.1324,211.8412,65.56254,46.6469
1017600,440.8471,212.0745,65.59753,46.67838
1017617,441.488,212.3152,65.62884,46.71082
1017633,442.1273,212.5788,65.65998,46.74631
1017650,442.8753,212.8511,65.69633,46.78291
1017666,443.572,213.1058,65.73009,46.8171
1017686,444.1556,213.2919,65.75832,46.84206
1017699,444.7173,213.4664,65.78541,46.86544
1017718,445.2006,213.7747,65.80869,46.90669
1017735,445.5936,214.1317,65.82758,46.95438
1017754,445.8738,214.4258,65.84103,46.9936
1017767,446.0502,214.8206,65.84949,47.04618
1017781,446.0961,215.342,65.85169,47.11544
1017799,446.1803,215.7524,65.85573,47.16983
1017816,446.12,216.2001,65.85284,47.22905
1017833,445.9911,216.6323,65.84665,47.28609
1017853,445.838,216.7401,65.83931,47.30029
1017870,445.8703,216.3031,65.84086,47.24265
1017885,446.2538,215.9518,65.85925,47.19623
1017902,447.2898,215.2521,65.90879,47.10351
1017920,448.3539,214.6951,65.95949,47.02948
1017935,449.5446,214.1597,66.01598,46.95813
1017951,450.8933,213.6806,66.07966,46.8941
1017969,451.9551,213.3506,66.12956,46.84993
1017987,452.9041,213.0522,66.17401,46.80991
1018001,453.5688,212.8117,66.20505,46.77762
1018020,454.0841,212.4762,66.22905,46.73251
1018033,454.4858,212.008,66.24773,46.66942
1018050,454.7955,211.3757,66.26212,46.58398
1018068,454.979,210.9685,66.27064,46.52883
1018084,454.9675,210.6198,66.2701,46.4815
1018101,454.6154,210.4379,66.25375,46.45678
1018127,454.2948,210.1919,66.23885,46.42331
1018140,453.7859,210.3167,66.21516,46.4403
1018153,453.1797,210.418,66.18688,46.45407
1018169,452.7109,210.5754,66.16497,46.47548
1018185,452.4631,210.9152,66.15337,46.52159
1018202,452.7546,211.0865,66.16702,46.54483
1018219,452.9922,211.1972,66.17812,46.55982
1018235,453.2142,211.194,66.18849,46.55938
1018252,453.3203,210.9828,66.19345,46.53077
1018268,453.3771,210.8263,66.1961,46.50954
1018286,453.3694,210.6533,66.19574,46.48605
1018302,453.0545,210.4664,66.18104,46.46065
1018321,452.5476,210.2132,66.15733,46.42621
1018337,451.8885,209.9287,66.12644,46.38746
1018353,450.8311,209.5725,66.07673,46.33887
1018369,449.4134,209.2262,66.00976,46.29153
1018388,447.8439,208.8404,65.93522,46.23872
1018410,445.8573,208.4523,65.84023,46.18548
1018422,443.8087,208.2614,65.74155,46.15925
1018436,441.0041,207.9852,65.60521,46.12127
1018452,438.3774,207.7999,65.4762,46.09575
1018469,435.3045,207.7647,65.32365,46.0909
1018486,432.2863,207.5487,65.17208,46.06112
1018504,429.6306,207.4742,65.03726,46.05084
1018520,426.6808,207.4205,64.88589,46.04343
1018536,423.9109,207.4103,64.74219,46.04202
1018553,421.2111,207.3984,64.60063,46.04039
1018570,418.511,207.4282,64.45758,46.04449
1018587,415.8208,207.4344,64.31355,46.04536
1018603,412.9922,207.3559,64.16045,46.03451
1018620,410.525,207.2336,64.02554,46.01762
1018635,407.8856,207.0968,63.87973,45.99872
1018653,404.4223,206.791,63.6861,45.95641
1018679,402.0725,206.5403,63.5532,45.92167
1018694,399.775,206.4476,63.42205,45.90882
1018707,397.5194,206.3426,63.29211,45.89426
1018724,395.0928,206.166,63.151,45.86974
1018739,392.5558,205.9588,63.00199,45.84094
1018753,390.0235,205.6507,62.85172,45.79808
1018771,387.831,205.427,62.72036,45.7669
1018787,385.3791,205.1657,62.57206,45.73046
1018804,382.9427,204.8523,62.42323,45.68667
1018821,380.8114,204.5229,62.2918,45.64059
1018837,378.3562,204.0496,62.13896,45.57423
