Time Stamp(ms),Intersection,,Angle,
,x,y,x,y
706337.6,319.0088,237.8489,57.91467,49.94053
706350.5,318.6162,237.609,57.88291,49.91204
706371.9,318.4524,237.4395,57.86965,49.8919
706381.4,318.1377,237.0922,57.84412,49.85057
706397.3,317.9457,236.7307,57.82854,49.80748
706414.6,317.7484,236.3887,57.8125,49.76664
706431.4,317.5715,236.0612,57.79812,49.72746
706448.8,317.2816,235.7867,57.77452,49.69458
706469.1,316.9675,235.6193,57.74891,49.67451
706485.2,316.6323,235.4048,57.72155,49.64876
706500.2,316.1872,235.1716,57.68515,49.62074
706518.3,315.6983,234.9127,57.64508,49.58959
706532.9,315.2614,234.7026,57.60919,49.56428
706549.4,314.8223,234.5356,57.57306,49.54415
706567.3,314.3254,234.4497,57.53209,49.53378
706582.5,313.7849,234.3871,57.4874,49.52623
706601.3,313.1743,234.3992,57.43681,49.52768
706618.4,312.4377,234.3992,57.37556,49.52769
706636,311.7147,234.3828,57.31527,49.52571
706653.9,310.9885,234.3324,57.2545,49.51962
706667.9,310.3686,234.4,57.20247,49.52779
706683.1,309.778,234.539,57.15276,49.54456
706699.6,309.2705,234.8176,57.10993,49.57813
706717.9,308.7118,235.2032,57.06268,49.62454
706736.1,308.2127,235.545,57.02036,49.66559
706752.4,307.7625,235.6978,56.98211,49.68392
706767.8,307.2669,235.8914,56.9399,49.70713
706786.7,306.7964,236.0817,56.89975,49.72992
706803.9,306.285,236.3287,56.856,49.75946
706821,305.7652,236.6429,56.81144,49.797
706837.7,305.1711,237.3028,56.76037,49.87564
706854.4,304.529,238.1301,56.70502,49.97388
706869.8,303.7226,239.0789,56.63527,50.08603
706886.6,302.8068,239.8258,56.55575,50.17397
706903.6,301.6484,240.5085,56.45468,50.25406
706920.3,300.1825,241.1367,56.32601,50.32751
706937.2,298.7859,241.6525,56.20261,50.38767
706952.8,297.171,242.1078,56.05893,50.44062
706969.9,295.1424,242.5353,55.8769,50.49025
706987.1,293.1695,242.948,55.69822,50.53806
707003.3,289.7935,243.4777,55.38864,50.59928
707032.4,286.8824,243.9782,55.11773,50.65697
707050.2,284.0625,244.5171,54.85176,50.71893
707068.6,280.8177,244.93,54.54131,50.76631
707084.7,277.5625,245.2764,54.22504,50.80597
707102.5,274.2762,245.5026,53.90077,50.83184
707116.6,272.0984,245.6318,53.68307,50.84659
707128.6,269.7111,245.7018,53.4418,50.85459
707137.3,267.0121,245.8016,53.1657,50.86598
707151.8,263.3977,245.8675,52.79031,50.8735
707169.3,260.2181,246.0062,52.45462,50.88931
707184.6,256.6134,246.242,52.06777,50.91618
707202.7,253.3325,246.3909,51.70975,50.93314
707219.8,250.0949,246.4452,51.3508,50.93931
707235.8,246.4916,246.5105,50.94458,50.94673
707253,243.3816,246.6235,50.58818,50.95959
707269.6,240.3028,246.755,50.22995,50.97452
707285.8,237.2644,246.8769,49.87107,50.98837
707302.1,234.2887,246.7289,49.51435,50.97156
707323.9,231.6031,246.3253,49.18787,50.92566
707335.3,228.9175,245.7805,48.85703,50.86357
707351.2,226.155,245.2291,48.51209,50.80056
707368.8,223.8757,244.5723,48.2239,50.72528
707385.4,221.6825,243.9345,47.9435,50.65194
707400.6,219.4612,243.1665,47.65638,50.56333
707418,217.2682,242.4383,47.36977,50.479
707438.4,215.1843,241.7981,47.09452,50.40461
707466.9,212.8035,240.9952,46.77652,50.31099
707474.1,211.7895,240.631,46.63992,50.26839
707484,209.9518,239.9729,46.39062,50.19125
707501.3,208.0848,239.4964,46.13497,50.13522
707519.9,206.4999,239.2129,45.91608,50.10183
707534.1,204.691,238.9779,45.66412,50.07412
707552.3,202.9943,238.836,45.42571,50.05737
707568.8,201.2242,238.6751,45.17482,50.03837
707592.3,200.0125,238.5938,45.00179,50.02875
707606.3,198.7156,238.5491,44.81543,50.02347
707617.9,197.3322,238.4555,44.61531,50.0124
707634.9,196.0278,238.2874,44.42534,49.9925
707657.3,194.7437,238.0188,44.23711,49.96068
707674.4,193.6696,237.7323,44.07874,49.92669
707690.4,192.8373,237.5283,43.95543,49.90246
707705.6,192.1315,237.3648,43.85046,49.88302
707719.1,191.5478,237.2313,43.76336,49.86713
707736,191.1258,237.0376,43.70024,49.84407
707757.6,190.7438,236.9656,43.643,49.83548
707774.4,190.5932,236.9457,43.6204,49.83311
707789.6,190.695,237.0006,43.63567,49.83966
707808.4,190.8102,237.0827,43.65295,49.84944
707824.2,191.0467,237.2901,43.6884,49.87413
707839.3,191.4798,237.6711,43.75321,49.91942
707852.8,191.9779,237.8602,43.82757,49.94187
707872.8,192.7083,238.1884,43.93628,49.98077
707890.3,193.4529,238.4447,44.04668,50.01112
707908,194.1604,238.6304,44.15121,50.03308
707921.5,195.0061,238.8679,44.27567,50.06113
707939.4,195.7987,239.084,44.39184,50.08664
707957.4,196.7905,239.1747,44.53657,50.09734
707974.4,197.6978,239.2575,44.66833,50.10709
707987.5,198.6831,239.3418,44.81075,50.11702
708004.4,199.6519,239.4013,44.9501,50.12403
708020.2,200.7925,239.2816,45.11329,50.10994
708037.3,201.8108,239.2029,45.25821,50.10065
708052.9,203.0959,239.0246,45.44005,50.07964
708070.6,204.2716,238.8623,45.60537,50.06047
708087.3,205.5455,238.6746,45.78342,50.03831
708103.3,206.947,238.3929,45.978,50.005
708121.1,208.1911,238.1375,46.14959,49.97475
708137.4,209.5309,237.8257,46.33319,49.93778
708153.7,211.101,237.4299,46.54679,49.89076
708172.3,212.593,236.942,46.74821,49.83268
708188.3,214.3467,236.3863,46.98307,49.76635
708204.8,216.0094,235.8333,47.20383,49.70017
708220.6,217.7317,235.2138,47.43061,49.62582
708237.9,219.467,234.4413,47.65713,49.53277
708254.1,221.4823,233.3121,47.91775,49.39613
708275.8,223.3811,232.2946,48.16093,49.27235
708290.4,225.17,231.4571,48.38795,49.17
708305.4,227.2393,230.574,48.64804,49.06161
708322.3,229.3336,229.6068,48.90858,48.94237
708338.6,231.4509,228.5787,49.16924,48.81498
708354.6,233.9912,227.4919,49.47839,48.67961
708376.3,236.2397,226.7085,49.74882,48.58158
708389.2,238.4072,225.9441,50.00668,48.48556
708404.6,240.7767,225.1473,50.28544,48.38508
708421.4,243.0589,224.3035,50.55088,48.27824
708438.6,245.4289,223.4147,50.82341,48.16521
708460.3,247.5921,222.6468,51.0694,48.06716
708476.3,249.488,221.974,51.28288,47.98095
708487.8,251.5918,221.1593,51.51746,47.87615
708505.3,253.5202,220.1783,51.73038,47.74941
708524.9,255.0435,219.3218,51.89717,47.63824
708542.1,256.5549,218.3699,52.06144,47.51414
708558.9,257.9897,217.3143,52.21627,47.37583
708575.8,259.2843,216.1933,52.35505,47.22814
708593.4,260.3691,215.3042,52.47068,47.11042
708614.4,261.4415,214.3586,52.58439,46.98465
708628.4,262.3457,213.4988,52.67981,46.86978
708644.1,263.1325,212.7349,52.7625,46.7673
708659.9,263.9046,211.861,52.84334,46.64959
708678.4,264.5052,211.1124,52.90602,46.54833
708693.9,264.967,210.3312,52.95409,46.44227
708709.3,265.4406,209.5643,53.00328,46.33775
708726.8,265.8197,208.9074,53.04258,46.24789
708743.1,266.1707,208.2414,53.07889,46.1565
708759.8,266.5256,207.7204,53.11555,46.0848
708776,266.8703,207.22,53.15109,46.01575
708794.6,267.1092,206.7912,53.1757,45.95644
708808.2,267.3622,206.2884,53.20172,45.88674
708826,267.659,205.8777,53.2322,45.82967
708843.9,267.9383,205.5007,53.26085,45.77718
708858.3,268.2278,205.2326,53.2905,45.7398
708877.3,268.4299,205.1632,53.31118,45.7301
708891.9,268.6198,205.0913,53.33059,45.72007
708913.3,268.7846,205.0019,53.34743,45.70758
708929.3,268.8606,204.8753,53.35518,45.6899
708946.6,268.9566,204.6766,53.36498,45.66211
708960.4,268.9805,204.3935,53.36741,45.62246
708976.1,269.0248,204.1182,53.37193,45.58386
708992.8,268.9938,203.8653,53.36877,45.54834
709008.7,268.9016,203.4732,53.35936,45.49321
709026.8,268.9092,203.1684,53.36015,45.45027
709042.4,268.8348,202.8332,53.35255,45.40297
709059.4,268.8347,202.5624,53.35254,45.3647
709077.4,268.7421,202.2828,53.34308,45.32513
709096.8,268.643,202.042,53.33296,45.291
709110.8,268.5139,201.8185,53.31977,45.25929
709125.4,268.3342,201.5165,53.3014,45.2164
709146.7,268.1807,201.25,53.28568,45.17849
709159.1,267.948,200.8983,53.26185,45.12839
709176.6,267.7086,200.4586,53.23729,45.06562
709192.7,267.3098,199.8465,53.19633,44.97801
709214.8,266.8654,199.2137,53.15059,44.88714
709229,266.1503,198.4607,53.07678,44.77866
709246.1,265.3237,197.6317,52.99115,44.65875
709260.9,264.1951,196.6669,52.87368,44.51856
709277.4,262.6809,195.5618,52.71508,44.35717
709293.3,261.1835,194.492,52.55709,44.20007
709310.1,259.0945,193.2068,52.33477,44.01023
709334.7,257.1896,192.2786,52.13006,43.87237
709344.8,254.9834,191.3637,51.89061,43.73586
709363.6,252.9983,190.4615,51.67295,43.60061
709378.4,250.5264,189.4324,51.39897,43.44561
709396.1,247.8161,188.3583,51.09473,43.28297
709414.1,245.1183,187.3713,50.78787,43.13276
709430.1,242.574,186.4534,50.49474,42.9924
709443,239.6572,185.5563,50.15414,42.85459
709463.4,236.8624,184.6022,49.82318,42.70734
709476.4,234.1319,183.6908,49.4954,42.56604
709494.6,230.85,182.7534,49.09554,42.42004
709510.6,227.8801,181.9207,48.72804,42.28977
709529.9,224.6526,181.0655,48.32249,42.15541
709548.4,221.7855,180.3772,47.95673,42.04686
709562.3,218.8365,179.6787,47.57505,41.93631
709578.3,215.8161,179.1077,47.17827,41.84566
709594.9,212.8667,178.5863,46.785,41.76266
709612.1,210.1005,178.1325,46.41087,41.69025
709627.2,207.3921,177.6967,46.03952,41.62056
709643.8,204.815,177.2817,45.68146,41.55406
709663.4,202.2916,176.9502,45.32637,41.50084
709680.1,200.1337,176.7866,45.01915,41.47453
709693.7,198.1604,176.7385,44.73528,41.46679
709713.1,196.6991,176.889,44.52326,41.49099
709727.4,195.3942,177.1821,44.33261,41.53806
709743.9,194.4283,177.6743,44.1907,41.61697
709762.9,194.095,178.5635,44.14156,41.75904
709778.9,193.9644,179.4579,44.1223,41.90129
709792.6,194.3079,180.6575,44.17296,42.0911
709810,195.4114,182.3223,44.33513,42.35266
709826.8,196.4451,183.937,44.48624,42.60428
709843.9,198.0335,185.9307,44.71693,42.91219
709861.5,199.3838,187.8676,44.9116,43.20839
709876.7,201.0045,190.1933,45.14352,43.5603
709894.1,202.9828,193.0457,45.42409,43.98636
709914.5,204.5864,195.2877,45.64948,44.317
709931.1,206.5184,197.9138,45.91865,44.69961
709947.6,208.2346,200.0883,46.15556,45.01265
709963.1,210.1194,202.0672,46.41345,45.29458
709979.5,212.2453,203.9463,46.70141,45.55972
709996.2,214.8011,206.0484,47.04359,45.8534
710016.9,217.2638,207.7067,47.36919,46.08291
710031.8,219.9145,209.232,47.71522,46.29234
710047.7,222.6098,210.4552,48.06242,46.45913
710063.6,225.6592,211.6399,48.44968,46.61972
710079,229.2444,212.4146,48.89754,46.72421
710096.9,233.0114,212.9541,49.35961,46.79674
710113.6,236.8746,213.7464,49.82463,46.9029
710131.1,240.6352,214.416,50.26889,46.99231
710152.1,245.4576,215.1586,50.82669,47.0911
710168.5,249.7698,215.8165,51.31444,47.17833
710180.9,253.8499,216.5292,51.76658,47.27249
710196.9,258.4465,217.4144,52.26534,47.38898
710212.7,263.2258,218.3901,52.77229,47.51678
710231.8,267.9033,219.2612,53.25726,47.63036
710247.7,273.2183,220.0861,53.7953,47.73747
710266.6,277.9727,220.898,54.26516,47.84246
710279.4,283.2339,221.906,54.77293,47.97221
710297.3,288.3542,222.8496,55.25515,48.0931
710315.3,293.0287,223.9164,55.68541,48.22907
710330.8,298.3066,225.1868,56.16008,48.39006
710347.4,303.1962,226.295,56.5896,48.52968
710366.7,308.3031,227.396,57.02803,48.66763
710381.4,313.0299,228.3517,57.42482,48.78676
710397,317.8096,229.3293,57.81748,48.90805
710413.3,322.9422,230.4394,58.22982,49.04506
710431.9,327.5526,231.4232,58.59222,49.16585
710451.9,332.3297,232.3589,58.95996,49.28019
710464.3,336.6036,233.1676,59.28246,49.37859
710480.4,341.0704,234.1631,59.6131,49.49918
710498.6,344.9607,235.1361,59.89586,49.61647
710513.9,350.0044,236.2843,60.25543,49.75415
710534.8,353.5301,237.1568,60.50217,49.85826
710547.3,357.4418,238.0448,60.77161,49.96376
710563.8,361.3398,239.0033,61.03567,50.07712
710579.9,364.9109,239.9031,61.27378,50.18304
710595.4,368.8554,240.8685,61.53266,50.29618
710613.1,372.3837,241.7742,61.76063,50.40183
710631.1,375.7544,242.8629,61.9753,50.52821
710646.1,379.1114,244.0293,62.18614,50.66286
710663,382.0531,245.1799,62.36851,50.79492
710680.1,384.7663,246.4926,62.53477,50.94469
710696.8,387.4937,248.1237,62.70005,51.12946
710715.9,389.3833,249.2655,62.81348,51.25793
710729.3,391.3738,250.7116,62.93204,51.41961
710746.2,393.2125,251.9136,63.04071,51.55313
710761.6,395.1325,253.215,63.15332,51.69682
710779.9,396.7178,254.2426,63.24565,51.80963
710794.9,398.3949,255.3261,63.34269,51.92798
710811.9,399.9744,256.421,63.43348,52.04693
710832.7,401.2553,257.2637,63.50669,52.13806
710849.1,402.4645,257.9581,63.57546,52.21288
710862.2,403.7633,258.6773,63.64896,52.29009
710879.1,404.9943,259.3807,63.71827,52.36536
710896.1,406.0484,260.0257,63.77735,52.43415
710912.8,407.0976,260.5719,63.83591,52.49223
710929.2,408.2844,261.1521,63.90186,52.55376
710949.6,409.4386,261.6089,63.96571,52.60209
710966.1,410.6259,262.0715,64.03107,52.65092
710980,411.7641,262.4883,64.09346,52.69482
710996.1,412.8914,262.7906,64.15497,52.72661
711012,414.276,263.0227,64.23015,52.75098
711032.6,415.604,263.2155,64.30186,52.7712
711050.8,416.9101,263.3716,64.37205,52.78757
711067.8,418.2289,263.4331,64.44254,52.79402
711084.6,419.5276,263.5952,64.51162,52.81098
711100,420.7558,263.7463,64.57661,52.82679
711114.4,421.7799,263.8362,64.63058,52.83619
711129,422.9929,263.8935,64.69422,52.84219
711146.9,423.967,263.974,64.74512,52.8506
711163.3,424.7949,264.0574,64.78822,52.85931
711180.3,425.4887,264.1755,64.82423,52.87164
711197.6,425.7571,264.2746,64.83814,52.88198
711213.2,425.3524,264.3937,64.81716,52.8944
711230.5,424.5364,264.5887,64.77478,52.91472
711247.5,422.5261,264.6167,64.66977,52.91764
711263.8,420.1221,264.73,64.54312,52.92944
711280,416.1179,264.9797,64.32953,52.95541
711296.8,411.8919,265.2068,64.10045,52.97901
711320.3,407.5957,265.3519,63.86363,52.99408
711331.6,402.6088,265.3382,63.58365,52.99266
711350.6,397.9232,265.2677,63.31546,52.98534
711371.1,392.6595,265.2247,63.00811,52.98087
711383.5,388.0128,265.3148,62.7313,52.99023
711400.8,383.2239,265.3972,62.44048,52.99878
711416.6,378.0268,265.4258,62.11834,53.00174
711440.1,373.1804,265.426,61.81164,53.00177
711452.1,368.9046,265.4734,61.53586,53.00669
711463.1,363.4873,265.5796,61.17929,53.0177
711480.9,358.8988,265.6754,60.87082,53.02763
711497.3,354.4087,265.7413,60.56308,53.03445
711513,349.4003,265.8921,60.21278,53.05007
711531.9,345.1253,266.066,59.90772,53.06807
711548.4,340.6301,266.1937,59.5808,53.08126
711565.8,336.4374,266.2582,59.27003,53.08794
711585.9,332.6162,266.3935,58.98178,53.10191
711601.4,329.0323,266.5735,58.70696,53.12049
711614.8,325.5121,266.8277,58.43275,53.14671
711630.4,321.4846,267.1227,58.11369,53.17708
711648.9,317.7513,267.4114,57.81274,53.20677
711665.4,313.9079,267.5502,57.49758,53.22103
711681.3,309.8626,267.5003,57.15989,53.2159
711699.2,306.4966,267.4928,56.87412,53.21513
711714.3,302.8691,267.5722,56.56118,53.22329
711731.9,299.1808,267.7607,56.23758,53.24263
711749.7,295.9529,267.9612,55.94983,53.26319
711765.6,292.4549,268.3506,55.6331,53.30307
711782.4,289.0212,268.7026,55.31712,53.33905
711798.8,285.8145,269.0369,55.01741,53.37317
711814.1,282.2105,269.2847,54.67515,53.39841
711832.3,278.9392,269.4941,54.35939,53.41974
711852.2,275.6715,269.8192,54.03907,53.45278
711871.8,272.7919,270.1575,53.75264,53.48712
711886.6,270.1041,270.4461,53.48171,53.51638
711903.7,267.3797,270.7486,53.20352,53.54699
711920.5,264.9857,270.9012,52.95604,53.56242
711936.1,262.841,270.9525,52.73191,53.56761
711951.4,260.5647,271.0869,52.49147,53.58117
711971.8,258.7033,271.1321,52.29288,53.58574
711988.4,256.7569,271.173,52.0833,53.58987
712003.3,254.76,271.2461,51.86622,53.59724
712020.4,252.9692,271.3799,51.66975,53.61074
712036.8,251.1688,271.563,51.47049,53.6292
712054,249.3883,271.7455,51.27171,53.64757
712073.3,247.7144,271.9427,51.08324,53.66741
712088.6,246.1318,272.1475,50.90363,53.688
712106.5,244.8937,272.4372,50.76214,53.71708
712121,243.7381,272.6955,50.62931,53.74298
712135.5,242.6722,272.9854,50.50612,53.772
712152.4,241.6508,273.2814,50.38746,53.80161
712170.7,240.9195,273.629,50.30214,53.8363
712185.7,240.2929,273.96,50.22879,53.8693
712202.4,239.9379,274.319,50.18714,53.90503
712219.6,239.6294,274.549,50.15088,53.92788
712235.7,239.3689,274.7394,50.12022,53.94678
712253.5,239.2054,274.8695,50.10095,53.95969
712270,239.049,275.1351,50.08252,53.98602
712286.1,239.0319,275.3832,50.08049,54.01057
712301.4,239.1147,275.7625,50.09026,54.04806
712319.1,239.1506,276.1298,50.09449,54.08429
712334.7,239.3219,276.5576,50.11468,54.12643
712350.9,239.4953,277.0102,50.1351,54.1709
712369.4,239.7043,277.4527,50.15968,54.21429
712384.9,239.9617,277.9358,50.18993,54.26156
712404,240.1227,278.3304,50.20884,54.30009
712418.4,240.3534,278.8723,50.23588,54.35289
712434.3,240.6848,279.3565,50.27469,54.39994
712452.1,241.1761,279.8413,50.33211,54.44696
712470.8,241.5943,280.1852,50.38089,54.48024
712486.1,242.0768,280.5728,50.43702,54.51768
712502.8,242.502,280.9218,50.48639,54.55134
712518.5,243.0044,281.3341,50.54459,54.59104
712535.3,243.5744,281.7722,50.61043,54.63313
712552.2,244.2434,282.2408,50.68748,54.67805
712568.6,244.9816,282.6535,50.77221,54.71753
712585.1,245.8095,282.9925,50.86688,54.74991
712602.6,246.5274,283.3487,50.94865,54.78387
712618.3,247.2584,283.7266,51.03163,54.81984
712634.1,248.053,284.1247,51.12149,54.85766
712651.1,248.834,284.4509,51.20947,54.8886
712669.8,249.533,284.7302,51.28792,54.91505
712685.9,250.1645,284.9386,51.35857,54.93476
712703.3,250.879,285.3,51.43826,54.96892
712723.4,251.3492,285.4634,51.49054,54.98433
712737.1,251.9724,285.6797,51.55964,55.00473
712752.6,252.7099,285.8585,51.64116,55.02156
712770.3,253.445,286.0224,51.72212,55.03699
712786.6,254.1249,286.1065,51.79674,55.0449
712806.6,254.8364,286.2279,51.87457,55.05631
712819.8,255.6075,286.3201,51.9586,55.06498
712836.6,256.3474,286.4336,52.03896,55.07563
712852.6,257.3513,286.5113,52.14751,55.08293
712885.1,258.5734,286.6035,52.27896,55.09158
712905.8,259.8336,286.5669,52.41367,55.08815
712924.6,261.0033,286.5509,52.538,55.08664
712936.2,261.7961,286.5007,52.62186,55.08194
712948.1,262.5822,286.4859,52.7047,55.08054
712958.6,263.4764,286.3624,52.79855,55.06895
712971.7,264.5779,286.2444,52.9136,55.05787
712986.5,265.715,286.1252,53.03173,55.04665
713003.8,266.8714,285.9527,53.1512,55.03043
713020.4,268.1972,285.7645,53.28737,55.01271
713038.1,269.4367,285.6161,53.41389,54.99873
713054.8,270.6123,285.4305,53.5332,54.98123
713071,271.7825,285.3303,53.65129,54.97177
713087.1,272.9469,285.1691,53.76816,54.95655
713104.3,273.9582,285.0346,53.86912,54.94385
713121.2,275.0238,284.9734,53.97499,54.93805
713139.9,275.8462,284.8579,54.05632,54.92714
713154.5,276.7722,284.6774,54.14753,54.91005
713171.8,277.577,284.5174,54.22647,54.8949
713189.3,278.3133,284.2846,54.29843,54.87283
713205.4,279.0302,284.0751,54.36825,54.85295
713222.8,279.8435,283.8771,54.44717,54.83415
713240.6,280.5692,283.7453,54.51734,54.82162
713256.9,281.2555,283.6259,54.58347,54.81026
713273.7,281.9256,283.5396,54.64785,54.80204
713291.3,282.5341,283.444,54.70612,54.79295
713307.4,283.2459,283.3069,54.77407,54.77989
713324.9,283.8719,283.0883,54.83365,54.75905
713340.6,284.5844,282.8768,54.90125,54.73887
713357.8,285.1906,282.6628,54.95858,54.71843
713373.5,285.7617,282.4989,55.01244,54.70275
713391.4,286.291,282.3442,55.06224,54.68795
713409.4,286.7661,282.2178,55.10683,54.67585
713425.3,287.1161,282.0662,55.13961,54.66132
713440.9,287.4834,281.9069,55.17396,54.64605
713458.1,287.65,281.7775,55.18952,54.63363
713477.1,287.7956,281.6064,55.20311,54.61721
713492.3,287.8381,281.4947,55.20707,54.60647
713507.7,287.7584,281.4501,55.19964,54.60219
713524.3,287.6617,281.3507,55.19061,54.59263
713541.8,287.5039,281.2415,55.17588,54.58213
713558.1,287.2448,281.2298,55.15165,54.58101
713574.3,287.0459,281.2038,55.13304,54.5785
713592.9,286.8169,281.1107,55.11159,54.56953
713610.4,286.5675,281.0575,55.0882,54.56441
713625.7,286.3119,280.9609,55.0642,54.55511
713642.3,286.0693,280.94,55.0414,54.5531
713659.2,285.8527,280.886,55.02101,54.54789
713674.1,285.6668,280.7451,55.00351,54.53431
713691.4,285.4459,280.6025,54.98267,54.52055
713708.8,285.2381,280.4688,54.96307,54.50764
713725,284.9793,280.3345,54.93862,54.49467
713742.3,284.8201,280.178,54.92356,54.47954
713758.9,284.6917,280.0589,54.9114,54.46802
713774.5,284.5084,279.9348,54.89405,54.45601
713791.1,285.0078,280.1809,54.94131,54.47982
713807.1,285.0285,280.1012,54.94327,54.47212
713823.9,285.1277,280.0597,54.95264,54.46809
