Time Stamp(ms),Intersection,,Angle,
,x,y,x,y
1807830,307.4355,258.7292,56.95427,52.29565
1807846,306.9618,258.4692,56.91387,52.26777
1807860,306.3393,258.2197,56.86065,52.24099
1807876,305.6217,258.1485,56.79911,52.23335
1807893,305.0036,258.2758,56.74594,52.24701
1807911,304.1798,258.6079,56.67485,52.28265
1807928,303.6168,259.0677,56.6261,52.33189
1807945,302.9593,259.8058,56.56901,52.41072
1807961,302.3352,260.4145,56.51467,52.47551
1807980,301.6285,260.9826,56.45294,52.5358
1807997,300.9774,261.2826,56.3959,52.56758
1808016,300.408,261.3961,56.34586,52.57959
1808034,299.7963,261.2452,56.29197,52.56362
1808048,299.2759,261.2965,56.246,52.56905
1808063,298.7597,261.5137,56.20029,52.59202
1808082,298.1523,261.9295,56.14636,52.63594
1808100,297.5119,262.4634,56.08935,52.6922
1808118,296.8867,262.9268,56.03352,52.74092
1808132,296.2007,263.3986,55.97208,52.79039
1808148,295.5667,263.9231,55.91512,52.84528
1808166,294.9747,264.4377,55.86177,52.89899
1808181,294.3744,264.8851,55.80754,52.94557
1808197,293.636,265.3131,55.74062,52.99006
1808212,292.5566,265.652,55.64238,53.02521
1808231,291.4553,265.8187,55.54163,53.04247
1808247,290.0486,265.8351,55.4122,53.04417
1808263,288.593,265.8935,55.27737,53.05022
1808280,287.0646,265.9866,55.13479,53.05985
1808297,285.2139,266.3522,54.96078,53.09764
1808317,283.3145,266.8498,54.78061,53.14898
1808332,281.8083,267.34,54.63659,53.19944
1808348,279.8338,268.1651,54.44623,53.28408
1808363,277.8245,269.1016,54.25068,53.37976
1808384,275.8059,270.1236,54.05234,53.48368
1808399,273.7111,271.3955,53.8445,53.61232
1808415,270.9081,273.2669,53.56312,53.80016
1808433,268.2199,275.0167,53.2897,53.97428
1808453,265.4791,276.7535,53.00727,54.14569
1808465,262.63,278.4003,52.70973,54.30691
1808479,258.8584,280.4388,52.3095,54.50474
1808497,255.7282,282.1061,51.97174,54.66515
1808515,252.3561,284.1863,51.60209,54.86351
1808531,249.4097,286.1811,51.27411,55.05191
1808547,246.4508,288.357,50.93995,55.25542
1808564,243.3828,290.9176,50.58832,55.49226
1808581,240.6812,293.2924,50.27428,55.7094
1808596,238.2165,295.6027,49.9841,55.91836
1808612,235.4648,298.4807,49.65597,56.17554
1808630,233.088,301.1166,49.36892,56.4081
1808646,230.4905,304.0762,49.05134,56.66588
1808662,228.0925,306.8546,48.7545,56.90471
1808678,225.7435,309.8218,48.4603,57.15645
1808694,223.5033,313.0965,48.17651,57.43034
1808713,221.4544,316.2572,47.91416,57.69088
1808729,219.4239,319.3305,47.65152,57.94066
1808745,217.3981,322.3918,47.38684,58.18606
1808761,215.5305,325.202,47.14044,58.40838
1808779,214.0113,327.7603,46.93831,58.60838
1808796,212.6444,330.2841,46.75513,58.80344
1808812,211.4529,332.752,46.59443,58.9921
1808831,210.575,335.5057,46.47542,59.2002
1808846,209.772,338.2089,46.3661,59.40203
1808864,209.0544,340.8191,46.26802,59.59467
1808879,208.3284,343.4724,46.16846,59.78825
1808895,207.5086,346.1308,46.05558,59.97998
1808913,207.0083,348.5829,45.98648,60.15488
1808929,206.8054,350.7411,45.9584,60.3073
1808946,206.6195,352.4835,45.93266,60.42932
1808962,206.694,353.4166,45.94298,60.49429
1808979,206.8107,354.3925,45.95914,60.56196
1808994,207.3082,355.2657,46.02793,60.62228
1809012,207.8379,356.1551,46.10098,60.68348
1809029,208.4834,356.9153,46.18975,60.7356
1809045,209.2369,357.5673,46.293,60.78017
1809062,209.9654,358.2888,46.39246,60.82936
1809079,210.8302,359.0079,46.51007,60.87822
1809096,211.8882,359.9994,46.65324,60.94536
1809113,212.8761,361.0572,46.78626,61.01667
1809129,213.9941,362.2868,46.93601,61.09916
1809146,215.1911,363.2614,47.09541,61.16424
1809162,216.31,364.1678,47.24356,61.22453
1809184,217.2447,364.9643,47.36668,61.27731
1809197,218.1995,365.7303,47.49186,61.32791
1809214,219.2494,366.39,47.62883,61.37135
1809232,220.0495,366.8873,47.73273,61.40403
1809246,220.7554,367.3237,47.82405,61.43264
1809263,221.2314,367.5249,47.88544,61.44581
1809279,221.7867,367.6628,47.95689,61.45484
1809299,222.2674,367.8453,48.01857,61.46677
1809317,222.8151,368.1234,48.08869,61.48494
1809334,223.2735,368.4095,48.14722,61.50361
1809346,223.822,368.7186,48.21707,61.52375
1809363,224.3701,368.9567,48.28669,61.53925
1809379,224.9231,369.2386,48.35673,61.55758
1809396,225.5176,369.5594,48.43182,61.57841
1809413,226.166,369.8496,48.51347,61.59723
1809431,226.7591,370.019,48.58792,61.60822
1809446,227.4139,370.1561,48.66987,61.61709
1809463,227.986,370.2527,48.74125,61.62334
1809479,228.6975,370.3089,48.82973,61.62698
1809496,229.4418,370.4573,48.92196,61.63657
1809513,230.0746,370.6542,49.00011,61.6493
1809531,230.6783,370.7177,49.07444,61.6534
1809547,231.2566,370.9058,49.14544,61.66554
1809563,231.8079,371.0948,49.21292,61.67773
1809580,232.3376,371.2703,49.27759,61.68905
1809596,232.9142,371.5247,49.3478,61.70543
1809613,233.4793,371.6997,49.41641,61.71669
1809631,234.09,371.8418,49.49034,61.72583
1809647,234.668,371.8929,49.56011,61.72912
1809664,235.3448,372.0713,49.64155,61.74057
1809680,236.0174,372.1953,49.72222,61.74854
1809697,236.6848,372.4369,49.802,61.76403
1809712,237.5644,372.431,49.90675,61.76366
1809732,238.302,372.2066,49.99423,61.74926
1809747,239.0573,372.0162,50.08349,61.73704
1809764,239.7827,372.0573,50.1689,61.73967
1809781,240.4556,372.0025,50.24786,61.73616
1809797,241.2453,371.8198,50.34019,61.72442
1809813,241.9928,371.7968,50.42726,61.72293
1809831,242.6911,371.7833,50.50831,61.72207
1809847,243.4689,371.8227,50.59826,61.7246
1809864,244.3365,371.8756,50.69819,61.728
1809881,245.1987,372.0105,50.79708,61.73667
1809900,246.1001,372.173,50.90001,61.7471
1809918,247.1758,372.4712,51.02227,61.76624
1809937,248.114,372.7351,51.12837,61.78315
1809952,249.1835,373.0821,51.24873,61.80535
1809969,250.3739,373.4349,51.38195,61.8279
1809985,251.4925,373.6888,51.50645,61.8441
1810000,252.5963,374.0215,51.62862,61.86531
1810017,253.9307,374.4898,51.77545,61.89511
1810035,255.2488,374.9202,51.91955,61.92245
1810055,256.2567,375.3386,52.02913,61.94898
1810068,257.3798,375.6888,52.15059,61.97115
1810085,258.5334,376.092,52.27467,61.99663
1810104,259.5551,376.5076,52.38398,62.02286
1810117,260.7117,376.8625,52.50707,62.04522
1810135,261.5863,377.2166,52.5997,62.06749
1810151,262.6653,377.39,52.71343,62.07839
1810168,263.6218,377.8325,52.81377,62.10616
1810184,264.7696,378.2666,52.93356,62.13335
1810202,265.7772,378.6176,53.03817,62.15531
1810218,266.8973,378.7964,53.15388,62.16648
1810234,268.34,378.8618,53.30198,62.17056
1810252,270.0223,378.8745,53.47341,62.17135
1810270,271.5028,378.9149,53.62313,62.17388
1810284,273.5137,378.737,53.82481,62.16277
1810302,275.9307,378.4125,54.06466,62.14248
1810318,278.1044,378.0164,54.27803,62.11769
1810336,280.5072,377.3569,54.51135,62.07631
1810352,283.2928,376.0295,54.77855,61.99269
1810369,285.6635,374.6757,55.00319,61.90693
1810383,288.2444,373.0311,55.24493,61.80209
1810401,291.0837,370.6132,55.50752,61.64665
1810420,293.6701,367.7606,55.74372,61.46124
1810439,296.1032,364.0643,55.96333,61.21765
1810453,298.1835,358.9152,56.14914,60.87193
1810469,300.1714,353.7242,56.32504,60.51565
1810485,302.0187,348.173,56.48705,60.12577
1810502,303.9037,341.9741,56.65095,59.67921
1810517,305.7865,336.4246,56.81326,59.26907
1810534,307.6519,330.3296,56.9727,58.80694
1810551,309.2721,325.1291,57.11007,58.40266
1810568,311.0405,319.7074,57.25886,57.97105
1810584,312.7455,314.3267,57.40118,57.53219
1810601,314.2676,308.5027,57.52731,57.04496
1810618,315.7009,302.8922,57.64529,56.56318
1810634,317.2186,296.5916,57.76939,56.00711
1810651,318.819,290.6851,57.89933,55.47087
1810669,320.3541,285.063,58.02309,54.94653
1810684,321.8431,279.7078,58.14233,54.43402
1810703,323.2249,274.8017,58.25226,53.95296
1810717,324.701,269.832,58.36895,53.45408
1810737,326.2688,264.8662,58.49206,52.94361
1810752,327.6556,260.7737,58.60023,52.51366
1810768,329.2119,256.7511,58.72084,52.08268
1810784,330.7039,253.0399,58.83568,51.67753
1810800,332.2729,249.4566,58.95564,51.27936
1810816,334.0201,245.9505,59.08824,50.88297
1810836,335.8206,242.4652,59.22383,50.48212
1810851,337.7076,239.2583,59.36478,50.10719
1810868,339.3457,236.4994,59.4862,49.77987
1810883,341.1886,233.4791,59.62176,49.41639
1810900,343.0914,230.6405,59.76059,49.06979
1810919,345.1071,227.6384,59.90641,48.6979
1810938,347.0579,224.877,60.04633,48.3509
1810956,348.7528,222.4923,60.16693,48.04739
1810967,350.4074,220.2542,60.28382,47.75925
1810983,352.2174,218.068,60.41074,47.47466
1811000,353.9069,216.0432,60.52832,47.20832
1811017,355.3752,214.262,60.62983,46.97177
1811033,357.0268,212.3676,60.74324,46.71788
1811051,358.4683,210.7195,60.84156,46.49504
1811067,359.7514,209.3659,60.92859,46.31064
1811083,360.9266,207.9805,61.00788,46.12061
1811100,362.0279,206.562,61.08182,45.92468
1811116,363.0381,205.2948,61.14935,45.74847
1811137,363.8683,204.1535,61.20463,45.58881
1811151,364.5764,202.7646,61.25163,45.39327
1811168,365.3841,201.3125,61.30506,45.18739
1811185,366.0994,199.9623,61.35223,44.9946
1811202,366.8855,198.4239,61.40391,44.77335
1811219,367.5751,197.0496,61.4491,44.57425
1811236,368.2838,195.639,61.49541,44.36847
1811255,368.9833,194.3409,61.54098,44.17782
1811270,369.6949,193.1461,61.5872,44.00124
1811286,370.4548,191.9827,61.63642,43.82828
1811304,371.1296,191.0185,61.67998,43.68417
1811321,371.8838,189.995,61.72853,43.53045
1811336,372.6149,189.1847,61.77544,43.40818
1811353,373.4947,188.125,61.83171,43.24753
1811379,374.44,187.0595,61.89194,43.08516
1811391,375.0696,186.338,61.93193,42.9747
1811403,375.8936,185.4222,61.9841,42.83394
1811418,376.7482,184.6189,62.03802,42.70993
1811435,377.7318,183.6357,62.09985,42.55748
1811454,378.6295,182.6465,62.15605,42.40334
1811470,379.7107,181.604,62.22347,42.24009
1811487,380.8514,180.612,62.29428,42.08392
1811504,381.9501,179.695,62.36216,41.9389
1811520,383.1778,178.7111,62.43765,41.78255
1811537,384.5056,177.6631,62.51888,41.61517
1811555,386.1904,176.5958,62.6213,41.44382
1811573,387.717,175.6963,62.7135,41.29871
1811588,389.3509,174.887,62.81155,41.16758
1811603,391.2355,173.9223,62.92384,41.01059
1811620,393.0142,173.0433,63.02903,40.8669
1811637,394.8504,172.335,63.13683,40.75065
1811653,396.9152,171.4884,63.25711,40.61118
1811672,398.9176,170.7461,63.3728,40.4884
1811689,400.8587,170.1278,63.48407,40.38578
1811704,403.0046,169.3553,63.60607,40.25715
1811724,404.834,168.7857,63.70926,40.16197
1811737,407.0575,168.0884,63.83368,40.0451
1811756,408.8887,167.5731,63.93533,39.95847
1811771,410.8138,166.9357,64.0414,39.85102
1811786,412.7234,166.3051,64.14582,39.74439
1811803,414.5999,165.7103,64.24767,39.6435
1811822,416.3782,165.0089,64.34351,39.52414
1811837,418.0013,164.3454,64.4304,39.41087
1811856,419.9,163.3832,64.53136,39.24593
1811874,421.4667,162.6013,64.6141,39.11134
1811888,422.9789,161.6753,64.69349,38.95126
1811905,424.3353,160.7346,64.76431,38.7879
1811920,425.6212,159.741,64.8311,38.61454
1811938,426.9072,158.6348,64.89758,38.42054
1811954,428.3633,157.2977,64.97244,38.18465
1811973,429.4601,156.2576,65.02856,38.00008
1811988,430.5139,155.0066,65.08225,37.77686
1812005,431.3917,154.0372,65.12682,37.60297
1812021,432.2486,153.1452,65.17017,37.44221
1812038,433.0394,152.0975,65.21006,37.25254
1812053,433.7676,151.0243,65.24669,37.05723
1812070,434.3349,150.0853,65.27515,36.88554
1812086,434.8161,149.0142,65.29925,36.68873
1812105,435.1418,148.0557,65.31553,36.51175
1812120,435.3181,146.9985,65.32433,36.31561
1812137,435.5291,145.9081,65.33487,36.11227
1812157,435.5189,144.7672,65.33436,35.89838
1812175,435.4226,143.8822,65.32955,35.73166
1812187,435.2678,142.7592,65.32182,35.5191
1812204,435.036,141.6877,65.31024,35.31522
1812224,434.7137,140.755,65.29412,35.13693
1812237,434.4171,139.7763,65.27927,34.94898
1812253,433.9098,138.6944,65.25383,34.74023
1812270,433.3354,137.6362,65.22496,34.53501
1812291,432.7453,136.6799,65.19524,34.34867
1812303,432.1013,135.8624,65.16273,34.18873
1812319,431.3403,135.0426,65.12421,34.02774
1812335,430.2886,133.9907,65.07079,33.82024
1812354,429.2111,132.988,65.01584,33.62152
1812371,428.1833,132.1186,64.96321,33.44848
1812387,426.8512,131.1026,64.89468,33.24537
1812407,425.6451,130.2607,64.83234,33.07634
1812422,423.8954,129.5208,64.74138,32.92726
1812440,422.1115,128.8887,64.64801,32.79949
1812456,419.7604,128.2095,64.52396,32.6618
1812473,417.3158,127.6489,64.39378,32.54783
1812488,413.705,127.263,64.1992,32.4692
1812505,409.4563,126.8121,63.96668,32.37718
1812522,405.6463,126.3094,63.75484,32.27433
1812538,401.5749,125.8451,63.5249,32.17914
1812556,396.9828,125.277,63.26103,32.06242
1812572,392.6418,124.7172,63.00707,31.9471
1812589,388.4702,124.289,62.75877,31.85869
1812605,383.8165,123.8754,62.47678,31.77313
1812621,379.1223,123.3258,62.18681,31.65919
1812639,375.0869,122.8269,61.93303,31.55551
1812654,370.6269,122.5269,61.64753,31.49307
1812672,366.6294,122.2399,61.38709,31.43325
1812689,362.5194,122.1141,61.11472,31.40701
1812706,358.3755,121.9008,60.83525,31.36248
1812721,354.099,121.7915,60.54164,31.33963
1812741,350.1994,121.7255,60.26917,31.32584
1812757,346.4912,121.5969,60.00581,31.29896
1812773,342.5982,121.7371,59.72472,31.32828
1812790,338.847,121.7057,59.44933,31.3217
1812807,335.3657,121.7198,59.18967,31.32464
1812823,331.4148,121.8048,58.89014,31.34242
1812839,327.8147,121.9384,58.6126,31.37033
1812856,324.448,122.0448,58.34901,31.39255
1812873,320.9366,122.4052,58.06983,31.46771
1812889,316.9699,122.8162,57.74911,31.55329
1812911,313.6325,122.9349,57.47479,31.57798
1812925,309.9878,123.0076,57.17043,31.5931
1812940,306.3983,123.1141,56.8657,31.61523
1812957,303.0946,123.2907,56.58078,31.65191
1812973,299.8532,123.6971,56.29699,31.73619
1812991,296.7973,124.3219,56.02552,31.86547
1813009,293.9828,124.7754,55.77208,31.95909
1813025,291.1912,125.1668,55.5174,32.03974
1813041,288.1375,125.5721,55.23498,32.1231
1813061,285.6601,125.9912,55.00288,32.20913
1813076,283.1583,126.4365,54.76572,32.30036
1813091,281.1524,127.0408,54.57355,32.42388
1813109,278.9437,127.6921,54.35983,32.55662
1813124,276.8745,128.1989,54.15758,32.65966
1813143,275.0132,128.8291,53.97394,32.78743
1813159,273.1592,129.5478,53.78939,32.93271
1813175,271.5978,130.2675,53.63271,33.0777
1813190,269.92,131.221,53.46303,33.26908
1813211,268.3833,131.9878,53.30641,33.42237
1813226,266.9922,132.6698,53.16365,33.55827
1813242,265.6234,133.3625,53.02223,33.69585
1813259,264.2695,134.1175,52.88145,33.84531
1813274,262.9245,135.0139,52.74067,34.02209
1813292,261.7446,135.8438,52.61642,34.18509
1813310,260.447,136.7672,52.47896,34.36573
1813325,259.1201,137.617,52.3375,34.53127
1813343,257.8308,138.3979,52.19918,34.68283
1813359,256.7404,139.1519,52.08151,34.82862
1813378,255.7424,139.8884,51.97328,34.97056
1813393,254.9448,140.501,51.8864,35.08824
1813409,254.1857,141.126,51.8034,35.20794
1813427,253.7341,141.5639,51.75387,35.29161
1813446,253.4093,141.9543,51.71819,35.36605
1813459,253.2482,142.3852,51.70047,35.44806
1813474,253.2586,142.9031,51.70161,35.5464
1813492,253.2707,143.3768,51.70295,35.63614
1813510,253.3954,143.8276,51.71666,35.72136
1813525,253.7281,144.2634,51.75322,35.80355
1813542,254.0134,144.693,51.78452,35.88442
1813559,254.2884,145.1441,51.81465,35.96916
1813573,254.6349,145.8318,51.85255,36.098
1813592,254.8606,146.4344,51.87721,36.21054
1813609,255.1081,147.032,51.90422,36.32183
1813624,255.306,147.7092,51.92579,36.44758
1813642,255.3378,148.5124,51.92925,36.59618
1813659,255.3002,149.4229,51.92516,36.76394
1813675,255.146,150.3457,51.90834,36.93322
1813691,254.9612,151.2792,51.88819,37.10372
1813708,254.6936,152.3044,51.85897,37.29006
1813725,254.3791,153.2423,51.82457,37.45975
1813742,254.0468,154.2772,51.78818,37.64609
1813758,253.6357,155.3945,51.74307,37.84623
1813775,253.2743,156.5196,51.70334,38.04666
1813793,252.9086,157.5771,51.66307,38.23405
1813810,252.5405,158.5995,51.62246,38.41433
1813826,252.2602,159.5409,51.59148,38.57952
1813842,251.9294,160.6009,51.55488,38.76461
1813861,251.5142,161.6704,51.50885,38.95042
1813876,251.107,162.7081,51.46362,39.12975
1813892,250.6328,163.5947,51.41083,39.28226
1813908,250.1127,164.6117,51.35279,39.45638
1813925,249.5994,165.544,51.29536,39.61524
1813941,248.9016,166.5794,51.21706,39.79081
1813959,247.9839,167.8641,51.11369,40.00743
1813976,246.9958,169.1845,51.00186,40.22863
1813995,245.9372,170.3835,50.88145,40.42826
1814009,244.4486,171.5014,50.71107,40.61332
1814028,242.9708,172.4413,50.5407,40.76813
1814044,241.3978,173.2997,50.35798,40.90887
1814060,239.6979,174.119,50.15894,41.04267
1814075,237.8068,174.8605,49.93554,41.16328
1814094,235.7644,175.5264,49.69191,41.27123
1814111,233.9307,176.1628,49.47108,41.37405
1814128,231.892,176.7368,49.2232,41.46651
1814143,229.5732,177.1405,48.93821,41.53139
1814164,227.5152,177.5135,48.68252,41.59121
1814178,225.1,177.8512,48.3791,41.64528
1814194,222.7463,178.2292,48.0799,41.7057
1814210,220.5297,178.5544,47.79489,41.75758
1814227,218.0518,178.8945,47.47254,41.81176
1814242,215.7081,179.3238,47.16397,41.88
1814259,213.4902,179.7598,46.86862,41.94917
1814275,210.8101,180.3862,46.50734,42.04829
1814293,208.119,181.0281,46.13967,42.14952
1814310,205.6526,181.7592,45.79834,42.26443
1814325,202.8473,182.6536,45.40495,42.40445
1814344,200.2906,183.4609,45.0416,42.5303
1814360,197.7675,184.2814,44.67843,42.65769
1814376,195.1312,185.2797,44.29404,42.81198
1814395,192.5976,186.2755,43.91983,42.96511
1814411,190.1386,187.3448,43.55207,43.12872
1814428,187.8994,188.2547,43.21322,43.26725
1814445,185.8543,189.3125,42.90043,43.4275
1814472,183.5888,190.5775,42.5502,43.61803
1814489,182.1021,191.6257,42.31819,43.775
1814500,180.7577,192.477,42.10691,43.90189
1814514,179.5721,193.3242,41.91942,44.02763
1814529,178.6146,194.2039,41.76719,44.15762
1814548,178.0062,195.1537,41.67007,44.29735
1814563,177.8623,196.2069,41.64706,44.4515
1814579,177.8453,197.3723,41.64434,44.62113
1814597,177.9862,198.6041,41.66688,44.79935
1814612,178.3066,199.8652,41.71806,44.98068
1814628,178.9641,201.4021,41.82283,45.20014
1814646,179.5199,202.8994,41.91113,45.41231
1814663,180.138,204.6671,42.00906,45.66077
1814680,180.6258,206.4874,42.0861,45.91434
1814696,181.0505,208.5482,42.15305,46.19865
1814718,181.4273,210.5992,42.21232,46.47871
1814731,181.7977,212.8689,42.27047,46.7853
1814748,182.0681,214.854,42.31287,47.05062
1814763,182.3818,217.3115,42.36197,47.37547
1814780,182.7452,219.7543,42.41875,47.69444
1814796,183.0067,222.4621,42.45955,48.04353
1814814,183.1507,225.0429,42.482,48.37188
1814830,183.2148,227.782,42.49199,48.71582
1814848,183.1971,230.7104,42.48923,49.07838
1814866,183.1879,232.9554,42.48779,49.35281
1814880,183.1359,235.7087,42.4797,49.68523
1814895,183.0338,238.0467,42.46379,49.96399
1814912,182.8497,240.499,42.43507,50.25294
1814930,182.6905,242.7476,42.41021,50.51485
1814948,182.6096,244.9652,42.39758,50.77034
1814966,182.5271,246.5451,42.38469,50.95067
1814979,182.6967,248.5094,42.41119,51.17294
1814996,182.8453,250.3836,42.43439,51.38304
1815014,183.0762,252.0589,42.47039,51.56922
1815032,183.4661,253.6743,42.53111,51.74731
1815050,184.0186,255.1482,42.61694,51.90859
1815065,184.4376,256.534,42.68187,52.05918
1815081,184.8251,257.8588,42.74182,52.20219
1815096,185.2832,259.1457,42.81252,52.34023
1815113,185.6902,260.4037,42.87521,52.47437
1815130,186.0314,261.682,42.92765,52.60981
1815147,186.1809,262.6064,42.9506,52.70724
1815163,186.3906,263.6396,42.98277,52.81563
1815181,186.5727,264.5416,43.01068,52.90982
1815196,186.6962,265.4825,43.02958,53.00763
1815213,186.751,266.3483,43.03797,53.09725
1815230,186.7831,267.0524,43.04289,53.16985
1815246,186.7355,267.6656,43.03561,53.23288
1815263,186.732,268.3056,43.03507,53.29847
1815280,186.6898,268.8282,43.02861,53.35187
1815296,186.6174,269.2507,43.01752,53.39496
1815313,186.5444,269.496,43.00634,53.41993
1815329,186.5399,269.7433,43.00565,53.44507
1815347,186.5473,269.8043,43.00678,53.45127
1815362,186.6114,269.7054,43.01661,53.44123
1815379,186.736,269.7401,43.03568,53.44475
1815395,186.8888,269.8834,43.05906,53.4593
1815414,187.0792,270.0037,43.08817,53.47152
1815434,187.222,270.1061,43.10997,53.48191
1815451,187.3915,270.1452,43.13585,53.48587
1815465,187.5525,270.0604,43.16039,53.47727
