Time Stamp(ms),Intersection,,Angle,
,x,y,x,y
852963,316.6714,236.7708,57.72474,49.81226
852979.6,316.4025,236.7234,57.70277,49.80661
852996.2,316.2135,236.5663,57.6873,49.78785
853013.4,316.2634,236.3174,57.69138,49.75812
853036.1,316.2749,236.0711,57.69233,49.72865
853047.3,316.3408,235.7353,57.69772,49.68842
853065.3,316.424,235.3919,57.70452,49.64721
853084.3,316.5269,235.1658,57.71293,49.62004
853098.7,316.7102,234.9978,57.72791,49.59983
853113.1,316.8322,234.8607,57.73787,49.58333
853133.9,316.9116,234.7012,57.74435,49.56412
853151.7,316.9315,234.5148,57.74598,49.54163
853163.9,316.8908,234.3672,57.74266,49.52382
853180.5,316.74,234.2067,57.73034,49.50445
853198.4,316.5503,234.073,57.71484,49.48829
853213.4,316.2398,234.0031,57.68945,49.47983
853231.1,315.8876,233.8384,57.66061,49.4599
853258.6,315.6364,233.7838,57.64,49.4533
853270.1,315.4032,233.6318,57.62085,49.43489
853285.3,315.1624,233.4505,57.60106,49.41292
853302.1,314.9512,233.2178,57.58368,49.38469
853318.3,314.7503,233.0314,57.56713,49.36205
853334.8,314.5115,232.8635,57.54744,49.34163
853355.7,314.3185,232.6885,57.53152,49.32035
853370.7,314.1366,232.5057,57.51649,49.29808
853386.3,313.9876,232.2119,57.50418,49.26226
853402.6,313.808,231.7702,57.48932,49.20831
853416.8,313.5505,231.3115,57.46799,49.15216
853434.2,313.2316,230.6929,57.44156,49.07623
853450.8,312.8869,230.1027,57.41294,49.00358
853468.5,312.4933,229.4678,57.3802,48.92518
853483.9,312.0422,228.7747,57.34261,48.83931
853500.3,311.5613,228.102,57.30245,48.75569
853516.8,311.0048,227.454,57.25586,48.67488
853534.1,310.2857,226.712,57.1955,48.58201
853551.7,309.6072,225.9754,57.13836,48.4895
853571.5,308.8334,225.1584,57.07298,48.38649
853584.8,308.0603,224.4549,57.00742,48.29744
853602.9,307.1714,223.6582,56.93176,48.19623
853618.4,306.1235,222.9258,56.84216,48.10283
853635.9,305.0549,222.2036,56.75037,48.0104
853653.3,303.7412,221.4794,56.63688,47.91738
853670.4,302.4947,220.8091,56.52857,47.83099
853683.9,300.9568,220.1513,56.39408,47.74591
853700.6,299.1205,219.6219,56.23225,47.67726
853718,297.277,219.117,56.06839,47.6116
853733.7,295.2445,218.5715,55.8861,47.54048
853752,292.8904,218.3664,55.67281,47.51369
853767.6,290.1813,218.0935,55.42445,47.478
853787.2,287.5117,217.994,55.17661,47.46497
853803.4,284.4926,218.158,54.89255,47.48643
853816.7,281.4082,218.3417,54.59816,47.51046
853832.8,277.8733,218.8163,54.25546,47.57241
853850.5,274.2437,219.2481,53.89754,47.62865
853869.5,271.0758,219.689,53.58006,47.68597
853886.6,267.3986,220.2621,53.20546,47.76027
853900.8,264.15,220.7915,52.86898,47.8287
853916.1,260.3522,221.4678,52.46889,47.91589
853934.3,256.3897,222.2606,52.04354,48.01771
853950.9,252.8264,223.026,51.65401,48.11563
853968.1,248.6279,223.8651,51.18628,48.22256
853983.6,244.7682,224.6437,50.74775,48.32137
853999.5,240.6384,225.4195,50.26927,48.41945
854015.5,235.9595,226.4246,49.71529,48.54596
854032.3,230.3837,227.7158,49.0382,48.70756
854056.4,226.6517,228.369,48.57446,48.78892
854069.6,221.7614,229.1922,47.95364,48.89107
854085.8,216.9273,229.8617,47.32494,48.97385
854101.6,211.8181,230.4084,46.64378,49.04124
854118.1,207.124,230.9132,46.00248,49.10331
854134.7,202.2699,231.3118,45.3233,49.1522
854154.1,198.0351,231.6445,44.71716,49.19294
854170.1,193.4134,231.9969,44.04084,49.23601
854187.1,188.8124,232.2586,43.35184,49.26796
854202.3,183.8938,232.5128,42.59757,49.29895
854219.6,179.5207,232.6146,41.91125,49.31135
854235.9,173.8882,232.6352,41.00503,49.31385
854255.9,169.3931,232.6695,40.26345,49.31803
854270.5,164.5363,232.8328,39.4435,49.3379
854286.1,159.4274,233.1003,38.55965,49.37041
854304.9,154.4032,233.3147,37.66872,49.39644
854324.5,150.1448,233.6557,36.89643,49.43779
854340.1,145.5616,233.8044,36.04743,49.45579
854356.1,141.0214,233.755,35.18793,49.44981
854371.5,136.5975,233.821,34.33258,49.4578
854387.4,132.4684,234.0535,33.51818,49.48592
854404.2,128.4974,234.4792,32.72021,49.53734
854422.2,124.6059,234.8961,31.92412,49.58759
854438.8,121.502,235.2208,31.2791,49.62666
854453.3,118.4978,235.5601,30.64627,49.6674
854470.6,115.5642,235.74,30.02023,49.68898
854489,113.2056,235.9727,29.51108,49.71687
854504.1,111.1777,235.9783,29.06918,49.71754
854521.3,109.4072,236.0933,28.68024,49.7313
854538.4,108.3044,236.0231,28.43651,49.72291
854554.7,107.3343,236.0139,28.22118,49.7218
854572.7,106.8878,235.9923,28.12179,49.71922
854590.9,106.6455,235.8862,28.06775,49.70651
854610.1,106.5273,235.8044,28.04139,49.6967
854624.6,106.917,235.596,28.12828,49.67171
854640.6,107.3863,235.4711,28.23276,49.65672
854656.3,108.0417,235.3461,28.37829,49.64171
854670.1,108.9034,235.1916,28.56904,49.62314
854688.8,109.7018,235.1148,28.74516,49.6139
854708.3,110.2766,235.0985,28.87159,49.61194
854723.6,111.1796,235.1964,29.0696,49.62371
854739.9,111.876,235.0567,29.22177,49.60692
854755.6,112.6616,235.0589,29.3929,49.60718
854773.3,113.3704,234.9858,29.54681,49.59839
854790.8,114.2256,234.8476,29.7319,49.58175
854808.5,115.0219,234.6194,29.90362,49.55425
854823.1,115.7682,234.4458,30.06403,49.53331
854839.7,116.5131,234.2543,30.22359,49.5102
854855.1,117.2844,234.0723,30.38829,49.4882
854873,118.0226,233.8192,30.54542,49.45759
854888.3,118.9442,233.4625,30.74084,49.41437
854905.8,119.8447,233.1864,30.93103,49.38088
854922.9,120.6174,232.9304,31.09362,49.34976
854938.5,121.4691,232.7117,31.27221,49.32317
854953.4,122.4688,232.3528,31.48096,49.27944
854973.3,123.502,232.1398,31.69574,49.25346
854989.9,124.5295,231.8115,31.90836,49.21336
855005.9,125.6521,231.5477,32.13953,49.18109
855021.2,126.8929,231.0488,32.39368,49.11995
855037.9,127.9833,230.6958,32.61584,49.07659
855054.3,129.4566,230.2166,32.91429,49.01761
855072.3,130.8329,229.7122,33.19129,48.95539
855088.6,132.5903,229.0359,33.54245,48.87171
855104.9,134.7927,228.2054,33.97854,48.76857
855126,137.1152,227.2821,34.43361,48.6534
855138.6,139.7987,226.2209,34.95329,48.52037
855153.9,143.5912,224.8653,35.67668,48.34943
855171.8,147.2533,223.6158,36.36296,48.19084
855189.1,151.5004,222.2977,37.144,48.02246
855204.6,155.5407,221.0837,37.87233,47.86641
855222.2,159.7825,219.7308,38.62179,47.69139
855238.6,163.6853,218.33,39.29781,47.50893
855254.6,167.4926,216.9303,39.94492,47.32533
855272.7,171.7093,215.0209,40.64762,47.07281
855292.6,174.8892,213.2051,41.16794,46.83042
855308.3,177.8993,210.8507,41.65299,46.51284
855324.5,180.5724,208.5257,42.07769,46.19555
855340.9,183.2871,205.8354,42.50325,45.82378
855357.5,185.6324,203.1191,42.8663,45.44331
855372.8,187.9969,199.8101,43.22805,44.97278
855389.8,190.0935,196.9896,43.54528,44.56553
855406.5,192.28,194.3467,43.87258,44.17867
855422.8,194.7137,191.7603,44.2327,43.79511
855442.8,196.7849,189.6978,44.53575,43.48566
855456.3,198.8926,187.6666,44.84094,43.17778
855472.6,200.9926,185.7924,45.14183,42.89092
855489.2,203.188,184.0144,45.45303,42.61629
855505.6,205.559,182.6372,45.7853,42.4019
855522.1,207.9031,181.306,46.10997,42.19324
855540.3,210.4483,180.061,46.4582,41.99687
855557.1,212.9596,178.8848,46.79749,41.81022
855574.2,215.6156,177.6911,47.15172,41.61966
855591.1,218.4801,176.2677,47.52854,41.39096
855607.6,221.3588,174.8159,47.90185,41.15604
855625.8,224.3248,173.3931,48.28094,40.92416
855639.9,227.324,171.674,48.65864,40.6418
855656.4,230.6116,169.6608,49.06624,40.30808
855674.8,233.9429,167.3728,49.47256,39.92476
855690.4,237.0916,165.1309,49.8505,39.54494
855708.8,240.3229,162.7511,50.23232,39.13716
855724.8,243.436,160.337,50.59446,38.71863
855740.3,246.3974,158.054,50.93387,38.31825
855758.9,249.1355,155.8407,51.24334,37.92584
855774.3,251.8961,153.7315,51.55119,37.54795
855791.4,254.3859,151.8882,51.82533,37.21453
855807.8,256.7511,150.3283,52.08268,36.93005
855823.7,259.2313,148.7036,52.34939,36.63146
855840.9,261.5453,147.2452,52.59536,36.36147
855857.4,263.8527,145.867,52.83792,36.10458
855876.3,266.4094,144.4875,53.10356,35.84576
855896.1,268.3408,143.6545,53.30207,35.68865
855910.8,270.4583,142.7548,53.51762,35.51825
855926.6,272.6155,142.0328,53.73497,35.381
855944.1,274.8586,141.2271,53.95861,35.22728
855957,277.116,140.4998,54.18129,35.08801
855973,279.6176,139.9182,54.42528,34.97629
855993.1,282.1362,139.337,54.66803,34.86435
856012.4,283.9701,138.8761,54.84298,34.77536
856024.7,286.5223,138.5189,55.08396,34.70626
856046.3,289.0741,138.3217,55.32203,34.66806
856060.4,291.5305,138.3262,55.54853,34.66894
856075.9,294.2805,138.6256,55.79905,34.72692
856094.6,297.1259,138.7539,56.0549,34.75174
856113.3,299.4238,138.834,56.25908,34.76722
856127.6,302.1523,138.978,56.49871,34.79504
856143.1,304.7856,139.1146,56.72716,34.82143
856158,307.9148,139.4031,56.99506,34.87709
856177.8,310.6308,139.6104,57.22449,34.91705
856194,313.5223,139.9118,57.46566,34.97505
856211.5,316.0966,140.3138,57.67773,35.05231
856228,318.7145,140.6623,57.89087,35.11915
856244.2,321.6205,141.214,58.12455,35.22477
856260.4,324.4604,141.6606,58.34999,35.31006
856276.8,327.3159,142.1497,58.5738,35.40325
856294.7,330.2062,142.6559,58.79746,35.49948
856313.1,332.9326,143.1187,59.00583,35.58727
856327.4,335.9313,143.5161,59.23213,35.66249
856345.9,338.7787,144.0126,59.44427,35.75627
856359.7,341.6494,144.3767,59.65549,35.8249
856375.9,345.047,144.9408,59.90208,35.93099
856395.2,347.7541,145.5896,60.09597,36.05267
856410.7,350.6558,146.2989,60.3013,36.18526
856426.4,353.5762,147.0425,60.50537,36.32379
856443.5,356.3755,147.7682,60.6986,36.4585
856460.5,359.5058,148.697,60.91197,36.63025
856479.1,362.0746,149.4864,61.08495,36.77561
856493.9,364.8943,150.4035,61.27268,36.94381
856511.3,367.5338,151.476,61.4464,37.13956
856528,370.0377,152.6082,61.60942,37.34511
856543.2,372.6083,153.7423,61.77502,37.5499
856558.3,374.6217,154.6833,61.9035,37.71897
856574.9,376.9545,155.9298,62.05101,37.94173
856594.8,378.9222,156.9473,62.17434,38.12257
856610.8,380.842,158.0002,62.29369,38.30876
856627.9,382.6749,159.0623,62.40677,38.49564
856641.6,384.4587,160.2218,62.51601,38.69854
856658.5,386.1188,161.1235,62.61696,38.85553
856676.5,387.8762,161.8874,62.72308,38.98799
856694,389.6119,162.3281,62.82715,39.06418
856708.6,391.2676,162.5327,62.92574,39.0995
856725.6,393.0617,162.3638,63.03183,39.07035
856741.9,394.7311,162.4162,63.12985,39.0794
856759,396.2186,162.6872,63.21664,39.12614
856774.8,397.8372,163.2293,63.31049,39.21949
856791.9,399.418,163.8862,63.40157,39.33225
856811.1,400.766,164.6161,63.47877,39.45713
856827.4,402.1306,165.32,63.55651,39.57713
856844.8,403.5807,166.0219,63.63865,39.69638
856860.8,405.0067,166.9779,63.71896,39.85815
856877.5,406.44,167.8062,63.79924,39.99768
856893.8,407.9578,168.6493,63.88375,40.13914
856910.6,409.6372,169.5454,63.97666,40.28885
856924.7,411.2947,170.4461,64.06776,40.43864
856945.2,413.0787,171.3415,64.16516,40.58691
856960.1,414.8056,172.2394,64.2588,40.73493
856977.7,416.4783,173.1259,64.34888,40.88043
856993.6,418.3893,174.108,64.4511,41.04088
857008.3,420.1972,174.9861,64.54709,41.18368
857024.8,422.3988,175.9449,64.66309,41.33888
857046.8,424.3924,176.6983,64.76728,41.46032
857059.4,426.45,177.5635,64.87398,41.59922
857077.9,428.6532,178.2605,64.9873,41.71069
857091.7,430.8246,179.1098,65.09805,41.846
857111.2,433.0982,179.9482,65.21303,41.97901
857129.4,435.2554,180.8558,65.32121,42.12238
857142.4,437.3348,181.7538,65.42464,42.26359
857160.6,439.5158,182.9782,65.53227,42.45512
857178.4,441.4773,184.162,65.62831,42.63919
857191.6,443.5903,185.3807,65.73099,42.82755
857212.3,445.3045,186.3994,65.81368,42.98412
857225.8,447.0907,187.4485,65.89928,43.14454
857246.4,448.8657,188.3711,65.9838,43.28492
857260.9,450.4922,189.1899,66.06075,43.40896
857278.1,452.1406,189.8548,66.13826,43.50932
857293.7,453.9335,190.6093,66.22204,43.62281
857312.9,455.4498,191.1384,66.29246,43.70213
857325.3,457.0142,191.5753,66.3647,43.76747
857341.8,458.4833,191.8207,66.43217,43.80412
857358.8,459.9322,192.081,66.49834,43.84294
857376.6,461.3492,192.0593,66.56273,43.8397
857393.3,462.6917,192.1565,66.62343,43.85418
857410.3,463.9373,192.1919,66.67947,43.85945
857426.6,465.1777,192.2667,66.73504,43.8706
857443.9,466.2538,192.3775,66.78304,43.88708
857459.9,467.214,192.4653,66.82571,43.90015
857475.8,468.1901,192.6288,66.86895,43.92446
857496.6,469.1514,192.6987,66.91137,43.93484
857512.8,469.95,192.916,66.9465,43.96711
857531.9,470.4755,193.1359,66.96957,43.99972
857548.8,470.9696,193.3594,66.99121,44.03283
857562.7,471.4821,193.512,67.01363,44.05542
857578.8,471.9331,193.6361,67.03331,44.07378
857596.4,472.2364,193.6751,67.04653,44.07955
857612.8,472.5133,193.7066,67.05859,44.08421
857629.5,472.6998,193.7649,67.0667,44.09282
857646.7,472.8711,193.691,67.07415,44.08191
857660.3,473.1393,193.5967,67.08581,44.06796
857681,473.3901,193.5785,67.09669,44.06526
857696.5,473.5404,193.3705,67.10321,44.03447
857710.3,473.7271,193.2135,67.11131,44.01123
857727.1,473.8929,193.0975,67.11849,43.99403
857743.8,474.045,192.9377,67.12508,43.97033
857760.3,474.1857,192.8002,67.13116,43.94992
857777.3,474.1924,192.6698,67.13145,43.93055
857793.1,473.9898,192.617,67.12269,43.9227
857811,473.8604,192.5923,67.11708,43.91903
857827.1,473.7013,192.7003,67.11018,43.93509
857844.1,473.5758,192.7532,67.10475,43.94294
857860.5,473.3267,193.0563,67.09394,43.98792
857880.4,473.0156,193.3967,67.08043,44.03836
857897.9,472.7133,193.8253,67.06729,44.10175
857913.8,472.3382,194.7336,67.05096,44.23562
857932.1,471.9644,195.7336,67.03468,44.38232
857948.3,471.3446,197.499,67.00761,44.63951
857968.1,470.7498,199.3863,66.98159,44.91195
857981.6,469.9913,202.6093,66.94832,45.37133
857998.7,469.229,206.1888,66.91479,45.8729
858015.9,468.6001,209.8747,66.88706,46.3801
858031.9,468.1339,214.222,66.86646,46.96643
858048.1,467.6137,218.4618,66.84344,47.52615
858065.3,467.2442,222.9363,66.82706,48.10417
858081.8,467.0773,228.3034,66.81965,48.78075
858099.4,467.0444,232.681,66.81819,49.31942
858115.8,467.2556,237.3879,66.82756,49.88576
858134.2,467.494,241.2149,66.83813,50.33665
858148.8,467.6474,245.3892,66.84493,50.81887
858163.4,467.7868,249.5566,66.8511,51.29056
858180.3,468.0768,253.4996,66.86394,51.72812
858200.8,468.1965,256.7029,66.86922,52.07746
858216.1,468.2671,260.063,66.87234,52.43812
858231.4,468.1911,262.9917,66.86899,52.74773
858248.4,468.0505,264.7801,66.86277,52.93465
858264.1,467.9063,266.6685,66.85639,53.13029
858281,467.7664,268.4653,66.8502,53.3148
858298.3,467.332,270.1034,66.83096,53.48164
858313.4,466.725,272.4405,66.804,53.71741
858332.3,465.9818,274.3589,66.77093,53.909
858347.6,464.9616,276.6131,66.72538,54.13189
858364.4,464.0245,278.9399,66.68339,54.35946
858385.1,462.3796,281.8168,66.60934,54.63741
858404.6,461.5995,283.1783,66.57407,54.76764
858415.3,460.4393,285.1619,66.52142,54.95588
858431.3,459.2382,287.4026,66.46669,55.16641
858448.3,458.0139,289.911,66.41064,55.39949
858466.2,456.932,291.8895,66.36092,55.58142
858481.6,455.7493,293.8528,66.30632,55.76029
858498.6,454.7283,295.3376,66.259,55.89449
858512.5,453.4206,297.3065,66.19813,56.07103
858531.6,452.3468,298.734,66.14793,56.19801
858548.3,451.1151,300.0565,66.0901,56.31491
858568.9,449.8542,301.2324,66.03062,56.41825
858583.7,448.3259,302.447,65.95816,56.52442
858600.1,446.605,303.4314,65.87607,56.61002
858615.8,444.6046,304.0952,65.77998,56.66753
858632.8,442.8984,304.7852,65.69746,56.72712
858649.1,440.7453,305.3696,65.59255,56.77744
858666.1,438.8948,305.582,65.50172,56.7957
858682.1,436.6069,305.6804,65.38853,56.80416
858703.6,434.678,305.527,65.29234,56.79097
858717.7,432.4447,305.7156,65.18008,56.80717
858731.7,429.3561,305.9437,65.02325,56.82675
858748.7,426.1746,305.9439,64.85975,56.82677
858771.9,423.0104,305.7954,64.69514,56.81403
858786.3,420.1924,305.7661,64.54684,56.81151
858802,417.021,305.7799,64.37799,56.8127
858817.8,413.841,305.7873,64.20657,56.81333
858832.9,409.8977,305.6077,63.99102,56.7979
858851.4,406.8482,305.4369,63.82201,56.78323
858867.6,403.3501,305.2977,63.62562,56.77126
858883.4,399.9633,305.3953,63.43285,56.77966
858904.4,396.7169,305.5047,63.2456,56.78906
858914.6,393.0493,305.4411,63.0311,56.78359
858932.4,389.6009,305.3526,62.82649,56.77598
858949.3,386.1419,305.1586,62.61836,56.75929
858967.3,382.7435,305.1401,62.41099,56.7577
858983.1,379.5385,305.1288,62.21275,56.75673
859000.1,376.0414,305.0268,61.99344,56.74794
859018.6,372.8425,304.9474,61.79002,56.7411
859034.5,369.6929,304.7886,61.58708,56.72742
859051.9,366.3442,304.8102,61.36834,56.72928
859066.9,363.1222,304.786,61.15496,56.72719
859082.7,359.9644,304.6593,60.94299,56.71626
859099.3,356.6656,304.645,60.7185,56.71503
859116.6,353.5265,304.5719,60.50193,56.70872
859133.1,350.5321,304.4868,60.2926,56.70137
859149.9,347.6357,304.4611,60.08754,56.69915
859166.1,344.9459,304.4041,59.8948,56.69423
859182.5,342.1875,304.3445,59.69479,56.68908
859201.9,339.8137,304.3951,59.52073,56.69345
859216.1,337.311,304.5364,59.33525,56.70566
859231.4,334.4824,305.0339,59.12316,56.74855
859249.9,331.9517,305.3586,58.93115,56.7765
859269.6,329.661,305.5694,58.75549,56.79462
859281.7,327.1039,305.7862,58.55728,56.81324
859303.6,324.6346,306.0807,58.36372,56.8385
859319.3,322.2761,306.3959,58.17685,56.8655
859334.4,319.6443,306.5517,57.96597,56.87883
859352.4,317.3908,306.5736,57.78341,56.8807
859367.9,314.8517,306.4622,57.57549,56.87117
859390.8,312.3834,306.4048,57.37105,56.86625
859407.1,310.28,306.2325,57.19502,56.85151
859418.6,308.3248,305.9169,57.02987,56.82445
859433.5,306.2405,305.5887,56.85219,56.79627
859450.1,304.0771,305.1151,56.66596,56.75554
859475.5,302.0551,304.5682,56.49023,56.7084
859488.3,300.7681,304.0276,56.37752,56.66168
859500.9,299.0226,303.4364,56.22358,56.61045
859519.3,297.5722,302.9368,56.09472,56.56706
859534.4,295.9068,302.4552,55.94569,56.52513
859553.7,294.6995,302.099,55.83693,56.49406
859569.3,293.3525,301.7357,55.71486,56.46232
859585.1,291.9998,301.294,55.59151,56.42366
859602.4,290.7401,300.9045,55.47594,56.38949
859619.2,289.5555,300.5396,55.36663,56.35744
859634.9,288.3043,300.128,55.25051,56.32121
859652.4,287.0115,299.6361,55.12982,56.27783
859672,285.7219,299.0341,55.0087,56.2246
859691.3,284.5218,298.4082,54.89532,56.16911
859704.4,283.5308,297.9051,54.80121,56.12438
859717.8,282.3284,297.3441,54.68644,56.07438
859733.8,280.8506,296.5365,54.54448,56.00217
859753.1,279.6887,295.9363,54.43217,55.94835
859772.4,278.5635,295.3568,54.32282,55.89622
859785.3,277.2981,294.852,54.19914,55.8507
859807.1,276.0128,294.3724,54.07276,55.80737
859819.1,274.907,293.9781,53.96341,55.77165
859836.2,273.669,293.5824,53.8403,55.73575
859855.9,272.4529,293.0886,53.71866,55.69086
859871.5,271.2963,292.5867,53.60231,55.64513
859885.9,270.1739,292.1006,53.48879,55.60072
859900.6,268.9715,291.4863,53.3665,55.54448
859918.6,267.7755,290.8192,53.24416,55.48321
859936.5,266.4627,289.9654,53.10906,55.40451
859953,265.301,289.1629,52.9888,55.33027
859969.1,264.0837,288.1618,52.86206,55.23725
859984.8,262.8993,287.0901,52.73802,55.13718
860003.1,261.8824,286.0183,52.63097,55.0366
860018.2,260.9068,284.859,52.52777,54.92724
860035.3,259.9444,283.6351,52.42549,54.81113
860053.8,259.1669,282.7457,52.34251,54.72635
860068.5,258.4085,281.7468,52.26127,54.63069
860087.1,257.6792,280.8319,52.18285,54.54268
860105.8,257.0785,279.9503,52.11806,54.45751
860118,256.5241,279.007,52.0581,54.36599
860133.9,255.8653,277.8621,51.98664,54.25436
860154.7,255.2287,276.7968,51.91736,54.14994
860172.8,254.7208,275.8625,51.86194,54.05793
860185.1,254.1206,274.6042,51.79627,53.93336
860203.1,253.484,273.4446,51.72641,53.8179
860218.8,252.8794,272.2506,51.65985,53.69835
860233.4,252.1444,270.9033,51.57867,53.56263
860254.5,251.4326,269.5961,51.49979,53.43011
860268.9,250.7452,268.4402,51.42336,53.31223
860284.4,249.9059,267.1786,51.32967,53.18283
860301.1,249.0193,265.9855,51.23029,53.05974
860318.3,248.2011,264.9656,51.1382,52.95395
860333.6,247.2069,263.8972,51.02579,52.84258
860352.3,246.3555,263.0061,50.9291,52.74924
860367.8,245.3383,262.0777,50.81306,52.65157
860385.4,244.3239,261.3038,50.69674,52.56982
860406.1,243.1565,260.502,50.56217,52.48481
860421.4,242.1195,259.78,50.44199,52.40797
860438.5,241.0278,259.2122,50.3148,52.34735
860452.4,239.756,258.591,50.16576,52.28084
