Time Stamp(ms),Intersection,,Angle,
,x,y,x,y
1828743,301.4961,250.6094,56.44136,51.40822
1828760,301.0492,250.569,56.40219,51.40372
1828776,300.6804,250.6561,56.36981,51.41342
1828794,300.4363,251.1446,56.34835,51.4678
1828808,300.1509,251.6577,56.32323,51.52478
1828827,299.8721,252.1617,56.29866,51.5806
1828844,299.5573,252.4732,56.27087,51.61503
1828865,299.3247,252.4825,56.25031,51.61605
1828876,299.1986,252.3137,56.23916,51.5974
1828892,299.117,252.0439,56.23194,51.56756
1828910,299.0914,251.9961,56.22968,51.56226
1828926,299.2079,251.9507,56.23999,51.55724
1828943,299.3695,252.0901,56.25428,51.57267
1828960,299.5437,252.4046,56.26966,51.60744
1828976,299.7625,252.9553,56.28899,51.66821
1828996,299.8715,253.4838,56.2986,51.72638
1829010,299.945,254.1894,56.30509,51.80381
1829026,300.0193,255.0247,56.31163,51.89511
1829044,300.0792,256.1772,56.31691,52.0205
1829061,300.0832,257.1398,56.31727,52.12469
1829076,300.116,257.9964,56.32016,52.21699
1829093,300.1046,258.6909,56.31915,52.29155
1829109,300.0644,259.4804,56.31561,52.376
1829127,299.9753,260.2948,56.30776,52.46278
1829142,299.7346,261.2222,56.28652,52.56119
1829159,299.5514,262.0431,56.27035,52.64792
1829175,299.4118,262.7609,56.25801,52.72348
1829192,299.2471,263.6107,56.24345,52.8126
1829214,299.1062,264.5303,56.23098,52.90864
1829230,299.041,265.4538,56.22521,53.00465
1829244,299.1203,266.0005,56.23223,53.06129
1829260,299.388,266.3765,56.25591,53.10015
1829278,299.9449,266.7794,56.30507,53.14173
1829295,300.5203,266.9834,56.35574,53.16275
1829310,301.3113,267.3069,56.42517,53.19603
1829327,302.1489,267.8205,56.49841,53.24877
1829343,303.0912,268.1197,56.58048,53.27943
1829359,304.1606,268.4377,56.67319,53.31199
1829375,305.6487,268.96,56.80143,53.36533
1829395,307.0046,269.6095,56.91753,53.43147
1829413,308.0897,270.1563,57.00991,53.487
1829426,309.3197,270.8305,57.11409,53.55527
1829444,310.4399,271.3879,57.20846,53.61155
1829460,311.4886,272.0249,57.29638,53.67568
1829475,312.5744,272.6398,57.38695,53.7374
1829494,313.4613,273.2644,57.4606,53.79991
1829509,314.3361,273.7854,57.53297,53.8519
1829529,315.2427,274.4536,57.60766,53.91841
1829547,316.0442,275.0014,57.67344,53.97277
1829560,316.8039,275.2372,57.73556,53.99612
1829574,317.7576,275.6591,57.81326,54.03785
1829596,318.6307,275.9108,57.88409,54.0627
1829609,319.6606,276.1479,57.96728,54.08608
1829627,320.8577,276.2103,58.06351,54.09223
1829644,321.9789,276.3344,58.15316,54.10446
1829658,323.2574,276.3452,58.25483,54.10552
1829676,324.8761,276.2696,58.38275,54.09807
1829717,328.5576,276.4396,58.67023,54.11481
1829748,331.391,276.6373,58.88832,54.13426
1829765,333.0508,276.7431,59.0148,54.14466
1829777,334.4705,276.8644,59.12226,54.15658
1829788,335.6881,276.9702,59.21389,54.16698
1829804,337.8311,277.294,59.37397,54.19874
1829826,339.9802,277.744,59.53299,54.24281
1829840,341.1309,278.0225,59.61753,54.27003
1829852,342.267,278.3349,59.70058,54.30053
1829863,343.7402,278.9575,59.80767,54.36118
1829877,345.2531,279.7619,59.91692,54.43926
1829892,346.425,280.6211,60.00106,54.52235
1829909,347.6212,281.6904,60.08651,54.62527
1829925,348.6378,282.863,60.15878,54.73755
1829942,349.2179,284.2582,60.19987,54.87033
1829959,349.7394,285.6788,60.23673,55.00463
1829975,350.0955,287.1988,60.26185,55.14735
1829992,350.1362,288.6935,60.26472,55.28671
1830009,350.0813,290.0833,60.26085,55.4154
1830025,349.8909,291.6013,60.24742,55.55502
1830042,349.3203,293.0503,60.20712,55.68737
1830058,348.7772,294.4722,60.16866,55.81639
1830075,348.0558,295.962,60.11744,55.95065
1830092,346.8846,297.6522,60.03394,56.10185
1830116,345.7883,299.1244,59.95541,56.23259
1830125,344.2115,301.153,59.84178,56.41129
1830147,342.8255,303.2165,59.74126,56.59136
1830159,341.0496,305.5767,59.61158,56.79525
1830175,339.2094,308.2181,59.47613,57.02082
1830196,337.4753,310.5778,59.34749,57.22004
1830213,335.4557,313.4653,59.19644,57.46093
1830231,333.7801,316.0119,59.07009,57.67079
1830246,331.9276,318.7776,58.92931,57.89598
1830262,330.1477,321.1958,58.79296,58.09059
1830279,328.2667,323.5967,58.64769,58.28173
1830294,325.8871,326.1965,58.46216,58.4864
1830312,323.5858,328.3746,58.28086,58.65606
1830331,320.6778,330.3331,58.04908,58.80721
1830345,317.9928,332.2996,57.83236,58.95767
1830361,314.4502,333.7634,57.54239,59.06882
1830380,311.0334,334.6517,57.25826,59.13593
1830393,307.1704,335.7112,56.93167,59.21562
1830412,304.2171,336.0595,56.67807,59.24174
1830427,300.6107,336.1873,56.36369,59.25132
1830445,297.4441,336.3354,56.0833,59.2624
1830462,293.9291,336.0894,55.76721,59.24398
1830480,290.9886,335.9182,55.49879,59.23115
1830494,288.0282,335.5959,55.2248,59.20697
1830511,285.0291,335.4243,54.94332,59.19408
1830527,281.5547,335.2326,54.61224,59.17967
1830547,278.1548,335.1448,54.28296,59.17306
1830564,274.9456,335.0682,53.96723,59.1673
1830579,271.6465,335.0404,53.63761,59.16521
1830597,268.2827,334.988,53.29613,59.16127
1830614,265.2925,335.1112,52.98792,59.17054
1830628,262.007,335.3151,52.64412,59.18587
1830646,258.8484,335.6478,52.30842,59.21087
1830661,255.5915,336.0469,51.95687,59.2408
1830678,252.2482,336.4233,51.59016,59.26897
1830695,249.2369,336.6573,51.25471,59.28647
1830711,246.309,336.8587,50.92381,59.30152
1830730,243.2996,337.107,50.57871,59.32005
1830749,240.8471,337.2896,50.29368,59.33366
1830764,238.1756,337.7845,49.97926,59.37051
1830779,235.9579,338.2032,49.71509,59.40161
1830795,233.6962,338.5085,49.44269,59.42425
1830813,230.6897,338.5482,49.07584,59.4272
1830837,229.0134,338.4834,48.86892,59.4224
1830848,227.2318,338.2213,48.64711,59.40295
1830863,225.1834,337.5076,48.38964,59.3499
1830880,223.0699,336.9239,48.12123,59.30639
1830898,220.7282,336.09,47.82053,59.24402
1830914,218.8595,334.9892,47.57806,59.16136
1830931,216.9073,334.2905,47.3223,59.10867
1830946,214.551,333.4903,47.01029,59.04814
1830964,212.5813,332.8846,46.74664,59.00218
1830980,210.511,332.2745,46.46672,58.95576
1830996,208.3914,331.6458,46.17711,58.90779
1831017,206.2589,331.0421,45.88264,58.86161
1831030,204.0596,330.423,45.57563,58.81412
1831046,201.7969,329.593,45.25624,58.75025
1831063,199.6324,328.9369,44.9473,58.69959
1831079,197.4657,328.3124,44.63468,58.65123
1831094,194.9091,327.4872,44.26142,58.58713
1831112,192.4843,326.5597,43.90298,58.5148
1831129,189.7858,325.3336,43.49892,58.41872
1831145,186.9388,324.1959,43.06671,58.32911
1831165,184.3074,323.2655,42.66171,58.25548
1831179,181.0775,321.9962,42.15729,58.15454
1831195,178.043,320.8595,41.67595,58.06365
1831213,174.7955,319.4779,41.15273,57.95255
1831230,171.6827,318.218,40.64324,57.85064
1831247,168.5169,316.7958,40.11697,57.7349
1831262,165.3117,315.2177,39.57572,57.6056
1831279,161.8563,313.2581,38.9826,57.44375
1831296,158.4621,311.4138,38.39015,57.29011
1831313,155.4007,309.6643,37.84733,57.14317
1831329,152.4453,307.5838,37.31562,56.9669
1831348,149.8206,305.6134,36.83698,56.7984
1831363,147.4453,303.5385,36.39862,56.61932
1831380,145.2385,301.55,35.98688,56.44607
1831397,143.3715,299.5545,35.63512,56.27063
1831413,141.7795,297.465,35.33273,56.08516
1831431,140.2634,295.6339,35.04263,55.92116
1831452,138.9489,293.7083,34.78942,55.74718
1831468,137.9538,292.1013,34.59671,55.6008
1831479,136.8315,290.2533,34.37827,55.43108
1831496,136.05,288.6955,34.2255,55.28689
1831512,135.21,287.1643,34.06067,55.14413
1831531,134.3809,285.6053,33.89734,54.99771
1831547,133.3395,283.8484,33.6913,54.83142
1831565,132.3153,282.1866,33.48768,54.67286
1831581,131.5268,280.3805,33.33027,54.49912
1831599,130.9364,278.7936,33.21204,54.34523
1831615,130.5792,277.0518,33.14036,54.17498
1831632,130.2266,275.4939,33.06947,54.02152
1831649,129.9652,273.8939,33.01685,53.86272
1831666,130.0146,272.4097,33.02681,53.71432
1831683,130.1053,270.884,33.04506,53.56068
1831698,130.3813,269.2828,33.10058,53.39823
1831717,130.882,267.5952,33.20114,53.22565
1831733,131.4041,266.3246,33.30574,53.0948
1831747,132.0797,265.021,33.44072,52.95971
1831763,133.1301,263.7001,33.64974,52.82196
1831782,134.1117,262.3923,33.84417,52.68472
1831799,135.5005,261.001,34.11774,52.53776
1831816,136.9074,259.798,34.39308,52.40989
1831835,138.1026,258.5479,34.62558,52.27621
1831850,139.6478,257.4667,34.92426,52.15996
1831866,141.0717,256.4391,35.19756,52.0489
1831881,142.7093,255.3713,35.50963,51.9329
1831899,144.1034,254.2536,35.77338,51.81084
1831919,145.4408,252.9011,36.0248,51.66225
1831932,146.5644,251.4777,36.23478,51.5048
1831949,147.3571,250.189,36.38225,51.36131
1831964,148.0644,248.6287,36.51336,51.18637
1831980,148.8976,247.0567,36.66724,51.00876
1831997,149.6025,246.1882,36.79696,50.91005
1832013,149.9537,245.5536,36.8614,50.83767
1832030,150.2804,245.0611,36.92128,50.78133
1832046,150.7306,244.4555,37.00362,50.71186
1832062,151.3657,243.9796,37.11948,50.65714
1832079,151.936,243.746,37.22322,50.63022
1832095,152.5903,243.4297,37.34187,50.59373
1832113,153.2476,243.0803,37.46071,50.55337
1832133,154.0006,242.6496,37.59637,50.5035
1832150,154.8473,242.0636,37.74834,50.43549
1832162,155.8432,241.1424,37.9263,50.32819
1832179,156.916,240.1916,38.11702,50.21691
1832195,158.2726,238.8349,38.35678,50.05724
1832213,159.4583,237.5003,38.56506,49.89913
1832231,160.7462,236.1476,38.78991,49.7378
1832246,162.4047,234.6672,39.07742,49.56002
1832263,163.8111,233.3781,39.31938,49.40413
1832279,165.2645,232.0582,39.56768,49.2435
1832296,167.1685,230.436,39.89031,49.04464
1832313,169.2281,228.7664,40.23591,48.83828
1832331,171.1795,227.394,40.56013,48.66739
1832346,173.1487,225.9454,40.88417,48.48573
1832362,175.4379,224.7123,41.2569,48.33006
1832379,177.6711,223.3075,41.61646,48.15154
1832396,179.9974,222.0552,41.9868,47.99136
1832413,182.675,220.856,42.40779,47.83704
1832431,185.0866,219.7185,42.78219,47.6898
1832447,187.6849,218.2939,43.18056,47.50421
1832463,191.0176,216.5175,43.68404,47.27094
1832480,194.3795,214.869,44.18351,47.05262
1832498,198.2973,212.652,44.75507,46.75615
1832513,202.4175,210.163,45.3442,46.41939
1832531,206.6812,207.7401,45.9412,46.08752
1832547,212.2256,204.8782,46.69876,45.6903
1832567,217.1553,202.2697,47.35493,45.32327
1832581,223.3528,199.1978,48.15733,44.88486
1832598,229.143,196.6281,48.88497,44.51291
1832614,235.8389,193.9991,49.70084,44.12741
1832634,241.5689,192.1859,50.37792,43.85857
1832647,247.9085,190.1898,51.10518,43.55977
1832668,254.4533,188.5322,51.8327,43.30936
1832684,259.7202,187.1787,52.40159,43.10336
1832697,265.4337,185.8185,53.00257,42.89493
1832713,271.2189,184.5789,53.5945,42.70374
1832730,276.5894,183.7189,54.12955,42.57041
1832747,282.0174,182.6245,54.65664,42.3999
1832764,287.2888,181.584,55.15577,42.23693
1832780,292.2551,180.3827,55.61485,42.04772
1832799,297.4649,178.7966,56.08516,41.79617
1832817,302.5031,176.8511,56.52931,41.48491
1832836,307.1505,174.4922,56.92997,41.10344
1832851,312.2355,171.4216,57.35873,40.60014
1832864,317.5355,168.414,57.79519,40.09972
1832881,322.6441,165.5734,58.20613,39.62024
1832899,327.5706,162.9788,58.59362,39.17638
1832913,332.6615,160.6818,58.98522,38.7787
1832931,337.055,158.9537,59.31617,38.47657
1832948,341.7787,157.4645,59.66494,38.21416
1832965,345.9182,156.1535,59.96473,37.98157
1832984,349.3992,155.1987,60.2127,37.81123
1833000,352.6247,154.2352,60.43916,37.63855
1833016,355.5145,153.3612,60.63942,37.48121
1833032,358.2614,152.5845,60.82749,37.34083
1833048,361.2187,151.7748,61.02752,37.19391
1833065,363.6804,151.1404,61.19213,37.07841
1833081,365.9854,150.5761,61.34472,36.97538
1833098,368.1835,150.0846,61.48886,36.88541
1833115,370.186,149.7435,61.61903,36.82284
1833132,372.3775,149.2554,61.76022,36.73314
1833153,374.0497,149.0149,61.86711,36.68886
1833168,375.801,148.8695,61.97825,36.66206
1833180,377.8302,148.6669,62.10602,36.62469
1833201,379.8033,148.3523,62.22923,36.5666
1833218,381.6879,147.8447,62.34599,36.47268
1833234,383.745,147.3492,62.4724,36.38079
1833249,385.6234,146.9085,62.58691,36.29887
1833265,387.5999,146.4524,62.70645,36.21389
1833281,389.8623,146.0157,62.84211,36.13239
1833300,392.0515,145.5601,62.97219,36.04715
1833319,394.0467,145.185,63.08974,35.97683
1833334,396.1382,145.1919,63.21196,35.97813
1833352,398.0379,145.2832,63.32209,35.99526
1833369,399.8698,145.4124,63.42749,36.01947
1833386,401.7327,145.6897,63.53388,36.07141
1833403,403.5644,145.9846,63.63773,36.12658
1833420,405.2239,146.2147,63.73116,36.16954
1833435,407.1905,146.5061,63.84109,36.22391
1833462,409.6093,147.0104,63.97512,36.31782
1833476,410.9217,147.3355,64.04732,36.37825
1833487,412.3068,147.7241,64.12311,36.45033
1833501,413.999,148.306,64.21514,36.55804
1833519,415.3039,148.8152,64.2857,36.65205
1833533,416.9597,149.6552,64.3747,36.80662
1833552,418.7889,150.6242,64.47237,36.98417
1833572,420.5342,151.7802,64.56491,37.1949
1833591,422.2025,152.924,64.65279,37.40226
1833608,423.8345,154.0511,64.7382,37.60546
1833621,425.7693,155.5698,64.83878,37.87753
1833636,427.1786,156.6895,64.91156,38.07684
1833650,428.982,158.5792,65.00413,38.41076
1833669,430.6202,160.2404,65.08766,38.70178
1833688,432.3597,162.113,65.17579,39.02702
1833703,434.1399,163.705,65.26537,39.30119
1833719,435.7845,165.1421,65.3476,39.54684
1833734,437.7366,166.9254,65.44454,39.84928
1833751,439.4529,168.6448,65.52918,40.13839
1833770,441.2217,170.3342,65.61584,40.42007
1833785,442.9281,172.2872,65.6989,40.74279
1833801,444.3292,174.0651,65.76669,41.03388
1833818,445.6563,176.0097,65.83058,41.34934
1833834,446.9533,178.2634,65.89272,41.71116
1833852,448.1817,180.5242,65.95129,42.07007
1833870,449.0358,182.6462,65.99187,42.4033
1833885,449.8508,184.8353,66.03046,42.74339
1833903,450.5301,186.7606,66.06253,43.03944
1833919,451.0042,188.8994,66.08488,43.36502
1833935,451.4196,191.5073,66.10442,43.75732
1833954,451.6881,193.9807,66.11703,44.12469
1833972,451.7503,195.9061,66.11995,44.40755
1833986,451.8464,198.0648,66.12447,44.72147
1834000,452.1094,200.2917,66.1368,45.04175
1834018,452.3374,202.3116,66.14748,45.32921
1834034,452.7794,204.2744,66.16817,45.60577
1834051,453.5898,206.1229,66.20602,45.86375
1834069,454.5376,207.9061,66.25014,46.11037
1834084,455.6459,209.7112,66.30154,46.35781
1834100,456.8521,211.5063,66.35724,46.60166
1834118,457.8457,213.1956,66.40293,46.82914
1834133,459.0806,215.2088,66.45949,47.09776
1834152,460.1113,216.7855,66.5065,47.30626
1834168,461.0172,218.2322,66.54768,47.49614
1834184,461.6535,219.5676,66.57652,47.6702
1834200,462.021,221.0417,66.59314,47.861
1834216,462.2412,222.4106,66.6031,48.03693
1834232,461.9002,223.8188,66.58768,48.21666
1834251,460.8565,225.3269,66.54038,48.40776
1834289,458.5055,227.1698,66.43318,48.63935
1834309,456.8489,228.0715,66.35709,48.75189
1834324,454.9779,228.8736,66.27058,48.85159
1834336,453.6149,229.4377,66.20719,48.92146
1834348,451.6827,230.0589,66.11678,48.99817
1834361,449.8308,230.8099,66.02952,49.09062
1834372,447.4514,231.5843,65.9165,49.18557
1834387,444.6354,232.5446,65.78146,49.30281
1834403,441.4482,233.543,65.62689,49.42413
1834419,438.301,234.5669,65.47243,49.54792
1834436,434.5566,235.6255,65.28625,49.67525
1834454,431.6053,236.3407,65.13764,49.7609
1834471,428.5367,237.0394,64.98133,49.84428
1834487,424.7488,238.1798,64.78583,49.97976
1834503,421.3571,239.2179,64.60833,50.10242
1834520,417.594,240.0673,64.40865,50.20233
1834538,414.239,240.7463,64.22814,50.28189
1834554,411.2078,241.5384,64.063,50.37437
1834570,407.9049,242.7088,63.88081,50.51036
1834588,404.5137,243.8845,63.69125,50.64618
1834604,401.2277,244.6777,63.50512,50.73738
1834621,398.1147,245.2205,63.32652,50.79957
1834638,395.3444,245.9292,63.1657,50.88054
1834654,392.1631,247.1966,62.97879,51.02463
1834673,389.1642,248.3504,62.80037,51.15503
1834687,385.113,249.6394,62.55588,51.29984
1834711,382.5367,250.3413,62.39827,51.37832
1834723,379.7461,251.2113,62.22567,51.47522
1834736,376.7076,252.2649,62.03547,51.592
1834752,372.6602,253.6907,61.77835,51.74911
1834773,369.4053,254.814,61.56841,51.87212
1834788,366.0793,255.8767,61.35091,51.98788
1834805,363.1686,257.0643,61.15805,52.11653
1834821,360.3167,258.3909,60.96678,52.25937
1834838,357.6192,259.7555,60.78372,52.40536
1834853,354.5697,261.0829,60.57422,52.54644
1834876,352.5394,262.1126,60.43322,52.65525
1834889,350.7708,263.3218,60.30938,52.78236
1834904,348.8982,264.821,60.17723,52.93891
1834921,346.9955,266.4115,60.04187,53.10378
1834940,345.6997,267.45,59.94904,53.21074
1834959,344.4136,268.8131,59.85639,53.35034
1834980,343.4674,270.2065,59.78789,53.4921
1834996,342.3729,271.4391,59.70831,53.61671
1835012,341.9179,272.2088,59.67511,53.69415
1835025,341.7177,272.6407,59.66048,53.73749
1835036,341.4594,273.3528,59.64159,53.80873
1835054,341.182,274.5206,59.62128,53.92506
1835079,340.9993,275.239,59.60789,53.9963
1835090,340.6712,275.8552,59.58381,54.05721
1835105,340.4514,276.1791,59.56767,54.08916
1835121,340.2225,276.6635,59.55083,54.13683
1835138,340.0542,277.0732,59.53844,54.17709
1835153,339.7876,277.5584,59.5188,54.22465
1835172,339.5275,277.8626,59.49962,54.25441
1835191,339.4123,277.9544,59.49112,54.26338
1835205,339.3684,278.074,59.48788,54.27507
1835222,339.2921,278.2179,59.48224,54.28912
1835238,339.2329,278.4203,59.47787,54.30886
1835256,339.2404,278.5984,59.47842,54.32623
1835271,339.2897,278.7785,59.48207,54.34376
1835288,339.3487,278.9681,59.48642,54.36221
1835308,339.3942,279.11,59.48978,54.376
1835321,339.4947,279.3344,59.4972,54.3978
1835340,339.6321,279.5569,59.50734,54.41939
1835355,339.7958,279.9843,59.51941,54.4608
1835385,339.9177,280.364,59.5284,54.49752
1835400,339.9707,280.7487,59.5323,54.53466
1835412,339.9745,281.0099,59.53258,54.55983
1835421,339.8237,281.3042,59.52147,54.58816
1835438,339.4062,281.5743,59.49067,54.61413
1835452,338.6183,282.0806,59.43239,54.6627
1835470,337.8108,282.7515,59.37246,54.7269
1835488,336.7925,283.5858,59.29657,54.80644
1835504,335.4455,284.8254,59.19567,54.92406
1835520,334.1251,286.1583,59.09618,55.04977
1835536,332.4757,287.9011,58.97108,55.21295
1835555,330.9068,289.5693,58.85125,55.3679
1835574,329.5134,291.3593,58.74411,55.53283
1835588,327.9583,293.5507,58.62376,55.73287
1835604,326.5721,295.9009,58.51577,55.94516
1835621,325.17,298.6156,58.40586,56.18751
1835637,323.8764,301.7126,58.30386,56.4603
1835654,322.5023,305.1354,58.19485,56.75729
1835673,321.5127,307.9678,58.11593,56.99956
1835691,320.4384,311.3647,58.02987,57.286
1835705,319.4311,314.3947,57.94878,57.5378
1835721,318.3599,317.658,57.86215,57.80516
1835738,317.3333,320.6016,57.77873,58.04296
1835754,316.1848,323.8085,57.68495,58.29849
1835770,315.1651,326.4621,57.60128,58.50718
1835787,314.2475,328.8243,57.52565,58.69088
1835802,313.4235,330.9105,57.45747,58.85153
1835819,312.7161,332.7507,57.39874,58.992
1835834,311.9986,334.662,57.33897,59.1367
1835852,311.3014,336.5216,57.2807,59.27633
1835871,310.7687,338.1353,57.23607,59.39656
1835890,310.3989,339.5191,57.20501,59.499
1835903,310.0294,340.6438,57.17394,59.5818
1835920,309.6944,341.3535,57.14571,59.63384
1835940,309.4128,341.5349,57.12195,59.64712
1835955,309.0984,341.6289,57.09539,59.65399
1835970,308.9052,341.3423,57.07905,59.63302
1835990,308.8654,340.816,57.07568,59.59444
1836009,308.8493,340.4557,57.07432,59.56798
1836023,308.8166,340.2135,57.07155,59.55017
1836037,308.9234,339.9631,57.08059,59.53173
1836054,309.0618,339.7689,57.0923,59.51743
1836071,309.2404,339.5823,57.10739,59.50367
1836088,309.4774,339.3126,57.12741,59.48375
1836104,309.6822,339.1081,57.14468,59.46864
1836120,309.9666,338.8257,57.16865,59.44775
1836138,310.1794,338.5874,57.18656,59.4301
1836154,310.4019,338.3533,57.20527,59.41275
1836171,310.5021,337.9742,57.21368,59.38461
1836187,310.5911,337.7827,57.22116,59.37037
1836204,310.6435,337.6403,57.22556,59.35978
1836220,310.8194,337.3108,57.24032,59.33524
1836235,311.0211,337.1146,57.25723,59.32061
1836253,311.1123,336.9096,57.26487,59.30531
1836269,311.1048,336.7133,57.26424,59.29066
1836286,311.082,336.5025,57.26234,59.2749
1836302,311.0914,336.3026,57.26312,59.25994
1836319,311.0946,336.3514,57.26339,59.2636
1836335,311.0147,336.4043,57.25669,59.26756
1836353,310.8904,336.5366,57.24627,59.27745
1836370,310.788,336.492,57.23769,59.27412
