Time Stamp(ms),Intersection,,Angle,
,x,y,x,y
849286.6,318.8545,245.0488,57.9022,50.77992
849319.4,318.3778,244.3533,57.8636,50.70012
849351.6,317.9876,243.9339,57.83194,50.65187
849383.7,317.6235,244.4573,57.80235,50.71207
849414.9,317.281,244.7888,57.77447,50.75011
849449.4,316.9043,244.1567,57.74376,50.67752
849483,316.2198,243.8693,57.68781,50.64442
849520.2,315.52,243.8684,57.63044,50.64433
849549.9,314.8338,243.7325,57.57401,50.62867
849584.7,314.0019,243.6665,57.50536,50.62105
849619.4,313.1106,243.5521,57.43152,50.60786
849652.4,312.0368,243.5397,57.34216,50.60643
849686.2,310.6652,243.6528,57.22738,50.61947
849719.1,309.2377,243.5457,57.10717,50.60712
849753.1,307.7766,243.3881,56.9833,50.58892
849785.1,305.5544,243.1099,56.79333,50.55679
849818.1,303.3345,242.4849,56.60161,50.4844
849856.9,301.4536,241.642,56.43764,50.38644
849889.7,299.7304,240.8204,56.28616,50.29056
849923.4,297.8171,239.1978,56.11654,50.10005
849955.6,295.9037,237.3543,55.94541,49.88177
849989.2,293.8148,234.7479,55.75684,49.56974
850025.1,291.4835,231.8899,55.54422,49.22294
850057.4,288.4834,228.6029,55.26718,48.81798
850089.9,285.5128,226.2398,54.98899,48.52275
850124.7,281.9253,224.4267,54.64781,48.29386
850164.6,278.5662,222.798,54.32308,48.0865
850189.9,274.4746,221.43,53.92049,47.91102
850222.9,270.6479,219.8904,53.5368,47.71209
850262.1,266.6295,218.602,53.12626,47.54446
850294,262.4852,217.6061,52.6945,47.41413
850325.1,258.0341,215.836,52.22105,47.1809
850361.5,253.9696,214.295,51.77972,46.97617
850392.1,250.0832,213.4343,51.34949,46.86114
850428.6,246.1258,212.4766,50.90295,46.73256
850462.6,241.4203,211.5174,50.3606,46.60316
850493.4,237.3778,211.4309,49.88456,46.59146
850526.6,232.9478,211.744,49.35188,46.63379
850558.8,227.2855,211.7733,48.65382,46.63773
850597.6,222.4035,211.5278,48.03601,46.60456
850631.3,218.2487,211.344,47.49831,46.5797
850661.7,213.8566,211.3426,46.91764,46.57951
850694.1,210.1156,211.105,46.41293,46.54733
850728.1,206.5171,211.0242,45.91846,46.53638
850761.9,203.6768,211.2325,45.52185,46.5646
850794.3,201.0117,211.0352,45.14455,46.53786
850828.8,198.8238,210.2116,44.83102,46.42599
850858.7,196.9351,209.7513,44.55761,46.36327
850892.4,196.1472,209.9152,44.44277,46.38562
850926.8,195.8502,210.6901,44.39937,46.49105
850959.9,195.501,211.3743,44.34827,46.5838
850993.4,194.7285,212.1061,44.23488,46.68264
851028,194.187,212.7767,44.15512,46.77291
851063.6,193.6835,213.457,44.08079,46.86419
851095.6,193.3521,214.171,44.03175,46.95963
851129.6,193.7323,215.0921,44.088,47.08227
851164.3,194.6193,216.1931,44.21881,47.22813
851199.9,196.0845,217.0912,44.43362,47.3465
851237.5,195.7676,217.0174,44.3873,47.33679
851267.9,194.3034,216.6495,44.17229,47.28834
851302.4,193.2628,216.1341,44.01853,47.22033
851331.3,192.7229,215.8432,43.93844,47.18186
851366,192.5047,216.3243,43.90601,47.24545
851399.9,192.7029,216.7503,43.93547,47.30163
851432.1,193.1644,217.9375,44.00394,47.45758
851468.8,193.5896,219.1185,44.06691,47.61179
851503.1,193.5846,220.567,44.06616,47.79971
851535.4,192.9501,221.492,43.97217,47.919
851573.5,192.3318,222.0258,43.88029,47.98759
851599.7,191.6118,222.553,43.77293,48.05515
851632.2,190.703,223.5914,43.63688,48.18772
851670.4,189.3957,225.3806,43.44007,48.41454
851706.3,187.3275,227.9785,43.12608,48.74031
851736.8,185.618,230.1031,42.86409,49.00363
851769.3,184.7736,232.2185,42.73386,49.26306
851803.9,183.6916,234.2548,42.56617,49.51025
851835.6,182.6016,236.2596,42.39632,49.7512
851871.1,181.3567,238.4367,42.20123,50.01018
851907.8,180.7332,240.3967,42.10305,50.24096
851942.5,180.4384,241.8658,42.05652,50.41249
851971,180.8211,243.1904,42.11691,50.56609
852006.8,181.4729,244.2826,42.21948,50.69199
852039,182.2836,245.5325,42.34661,50.83525
852084.8,183.0724,246.2497,42.46981,50.91706
852110.8,184.2518,247.3949,42.6531,51.04709
852145.8,185.562,248.6825,42.85547,51.19243
852175.3,186.9445,249.6427,43.06758,51.30021
852208.8,188.6707,250.8562,43.33037,51.43571
852240.1,190.9174,252.2029,43.66903,51.58515
852278.6,193.6574,253.1217,44.07694,51.68654
852311.3,196.5198,253.546,44.49714,51.73322
852341.1,198.9184,253.4061,44.84465,51.71784
852381.3,200.3618,253.3379,45.05178,51.71033
852408.2,201.6273,253.3181,45.23215,51.70816
852446,202.3958,253.0031,45.34112,51.67348
852480.5,202.8484,252.6377,45.40512,51.63319
852511.7,203.3761,252.3434,45.47953,51.60069
852546.3,203.8978,251.9371,45.55292,51.55573
852579.8,204.4939,251.6981,45.63652,51.52925
852612.6,205.2641,251.3262,45.74419,51.48797
852647.5,206.3362,250.8358,45.89337,51.43344
852681.9,207.5077,250.4928,46.05547,51.39522
852711.9,209.3739,250.1526,46.31174,51.35725
852746.5,212.45,249.7239,46.72897,51.30931
852780,215.9503,249.3702,47.19603,51.26967
852814.2,220.1053,248.9269,47.73996,51.21991
852846.9,224.5428,248.8124,48.30859,51.20703
852882.4,229.7255,248.8923,48.95703,51.21602
852915.7,233.736,248.9326,49.44752,51.22055
852947.1,236.1182,248.6142,49.73429,51.18473
852993.1,236.8815,248.7692,49.82547,51.20218
853019.5,237.0844,249.4412,49.84964,51.27763
853050,236.9124,250.1406,49.82915,51.3559
853086.9,236.4264,250.903,49.77114,51.44092
853121.2,235.7527,251.4469,49.6905,51.50138
853150.6,235.0227,252.0353,49.60283,51.5666
853189.5,234.1858,252.9291,49.50191,51.66533
853222.1,233.1421,253.4542,49.37549,51.72313
853250.1,232.2243,253.8806,49.26377,51.76995
853286.6,231.1939,254.5104,49.13774,51.83894
853316.8,230.0332,255.1644,48.995,51.91035
853354.6,228.1306,255.8132,48.75925,51.98097
853386.7,224.8698,256.4606,48.35,52.05122
853420.7,219.9291,257.8445,47.71712,52.20065
853452.2,214.5846,259.7672,47.01476,52.4066
853487.3,207.6575,261.8744,46.07612,52.63013
853528.5,203.1434,263.1647,45.44675,52.76588
853557.8,198.0594,264.2083,44.72068,52.87506
853590.1,192.9222,265.5467,43.96803,53.01429
853625.7,188.1605,267.0415,43.25293,53.16872
853655.6,184.6492,268.2952,42.71462,53.29741
853689.2,182.09,269.2905,42.3163,53.39901
853723.4,180.6848,269.9073,42.09541,53.46173
853758.6,180.2943,270.6949,42.03376,53.54156
853788.9,180.2892,271.0987,42.03295,53.58237
853822.3,179.9705,271.631,41.98254,53.63604
853854.8,180.0787,271.9745,41.99967,53.67061
853888.1,180.4125,272.1642,42.05243,53.68967
853923,180.6329,272.3702,42.08723,53.71036
853957.2,180.8477,272.4255,42.12111,53.7159
853990.1,180.9806,272.6999,42.14203,53.74342
854026.1,180.6838,273.0982,42.09526,53.78329
854055.6,180.4267,273.3015,42.05468,53.80361
854090.9,180.0189,273.4756,41.9902,53.821
854126.2,179.4892,273.74,41.90626,53.84737
854161.3,179.142,274.1345,41.85112,53.88667
854190.3,178.852,274.6165,41.805,53.93458
854223.7,178.7276,274.9532,41.78518,53.96799
854256.9,178.8493,275.2047,41.80457,53.9929
854289.9,178.8806,275.524,41.80954,54.0245
854323.2,178.8805,275.606,41.80952,54.0326
854359.3,178.8838,275.8313,41.81005,54.05485
854389.2,178.7206,276.5608,41.78407,54.12674
854423.6,178.4185,277.0817,41.73592,54.17792
854457.5,178.2263,277.4751,41.70525,54.21648
854491.2,178.2465,277.8542,41.70847,54.25359
854525,178.3512,277.4057,41.72517,54.20969
854561.8,178.4208,277.1492,41.73628,54.18454
854590.6,179.0225,276.8942,41.83212,54.15951
854626.5,180.1868,276.6279,42.01677,54.13334
854658.6,181.8745,276.3898,42.28253,54.10991
854691.1,183.8135,276.4124,42.58511,54.11213
854728.4,185.6749,276.6418,42.87284,54.1347
854759.3,187.6338,276.8086,43.17279,54.1511
854789.3,189.6701,276.8921,43.48149,54.15931
854824.5,191.4298,276.9876,43.74574,54.16868
854858.2,193.0417,277.0721,43.98576,54.17697
854891.6,194.2749,277.3002,44.16808,54.19934
854926.9,194.8356,277.5237,44.25062,54.22125
854959,195.4905,277.5634,44.34673,54.22514
854990.8,196.291,277.3726,44.46376,54.20645
855025,197.1643,277.2092,44.59092,54.19043
855059.7,198.2768,277.1357,44.7521,54.18322
855091.1,199.3077,277.5108,44.90067,54.21999
855124.6,200.6339,277.6583,45.09066,54.23442
855160.2,202.2102,278.1515,45.31484,54.28263
855191.8,203.3569,278.6281,45.47682,54.32911
855227.3,204.1346,278.8888,45.58615,54.35449
855259.1,204.8394,279.5334,45.68487,54.41711
855290.6,205.8172,280.2542,45.82125,54.48691
855327.3,207.0647,280.8303,45.99428,54.54252
855361.8,208.3866,280.969,46.17645,54.55589
855397.4,209.3341,280.8473,46.3063,54.54416
855425.6,209.7872,280.8826,46.36817,54.54757
855460.6,209.505,281.1245,46.32965,54.57087
855494.2,208.9404,280.8455,46.25242,54.54399
855527.6,207.8858,280.4499,46.10758,54.50582
855559.4,206.4809,280.3853,45.91344,54.49958
855594.2,205.0537,280.3498,45.71482,54.49615
855626.3,203.6233,280.1261,45.51432,54.47452
855662.1,202.5267,280.0879,45.35964,54.47083
855694.2,201.5928,280.0073,45.22725,54.46303
855728,200.9182,279.8096,45.13122,54.44389
855763.1,200.4761,279.8417,45.06812,54.44699
855796.9,200.315,279.9834,45.04509,54.46072
855826.9,200.0813,280.2288,45.01165,54.48446
855865,200.0748,280.4789,45.0107,54.50863
855894.3,200.6118,280.5228,45.08749,54.51286
855929.1,201.0695,280.3081,45.15278,54.49212
855960.6,201.5717,280.0622,45.22424,54.46834
855995.5,201.9977,280.0797,45.28472,54.47004
856027.9,202.2765,279.9603,45.32423,54.45848
856062.9,202.6436,279.8209,45.37617,54.44498
856094.4,203.2562,279.4562,45.46264,54.40963
856129.6,203.4724,278.7499,45.4931,54.34097
856162.4,203.6585,278.065,45.51928,54.27419
856193.4,203.9799,277.4539,45.56445,54.21441
856230.9,203.8704,276.9131,45.54906,54.16137
856266.4,203.6146,275.7158,45.5131,54.04344
856297.9,203.0057,275.098,45.42732,53.98233
856330,202.1065,274.2917,45.30014,53.90231
856367.5,200.5447,273.0272,45.07792,53.77618
856400.8,199.0853,271.9133,44.86869,53.66446
856430,197.7886,271.1898,44.68148,53.59156
856467.1,196.694,270.0274,44.52251,53.47393
856499.3,196.0467,269.3827,44.4281,53.4084
856535.9,195.746,268.7673,44.38413,53.34565
856569.8,195.6338,268.2338,44.36771,53.29112
856602.7,195.4205,267.5179,44.33647,53.21771
856630.2,195.4738,266.8257,44.34428,53.1465
856672.8,195.1584,266.0034,44.29804,53.06159
856703.1,194.961,265.15,44.26905,52.97311
856743.7,194.9204,264.2096,44.26308,52.8752
856781.3,194.9286,263.3291,44.26428,52.78311
856805.3,194.973,262.5602,44.27081,52.70239
856836.2,194.8957,262.0636,44.25945,52.65009
856873,194.7399,261.6264,44.23655,52.60394
856906.1,194.4989,260.8674,44.20109,52.52359
856936.8,194.461,259.9464,44.19551,52.4257
856973.6,194.3269,258.0147,44.17575,52.21896
857004.8,193.8409,254.8206,44.10406,51.87284
857048.3,193.4366,252.5646,44.04426,51.62513
857076.4,192.5792,249.225,43.91709,51.25339
857109.7,191.1757,245.48,43.70771,50.82925
857142.2,189.7539,241.9214,43.49413,50.41896
857175.3,188.7622,239.0773,43.34423,50.08584
857208.3,188.144,236.6881,43.25043,49.80239
857242.1,187.8234,234.6644,43.20166,49.55968
857277.7,187.6663,232.5548,43.17774,49.30407
857308.7,187.7711,230.5446,43.1937,49.05801
857351.7,188.1831,229.068,43.25637,48.87568
857379.3,188.5792,228.1621,43.31649,48.76318
857409.4,188.7908,227.7347,43.34858,48.70992
857446.8,188.9873,227.4546,43.37831,48.67496
857480.3,189.3559,227.2579,43.43405,48.65037
857512.3,190.0894,227.1991,43.54465,48.64302
857545.6,190.8504,227.0086,43.65898,48.61918
857580.1,191.5306,226.9917,43.76079,48.61706
857614.3,192.203,226.7411,43.86111,48.58566
857646.9,192.6138,226.8386,43.92223,48.59789
857681.1,192.8582,227.1346,43.95852,48.63495
857712.4,193.3383,227.6579,44.02972,48.70033
857746.7,194.2125,228.0872,44.15889,48.75385
857783.6,195.5006,228.7789,44.34821,48.83983
857813.1,197.3068,229.3122,44.61162,48.90593
857846.6,200.4061,229.4312,45.05811,48.92065
857882.1,203.1534,228.9872,45.44815,48.86567
857912.8,205.8617,228.6634,45.82744,48.8255
857947.1,209.3083,228.4349,46.30277,48.79711
857981.9,212.7193,227.9872,46.7652,48.7414
858014.4,216.1472,227.8265,47.22206,48.72137
858048.2,218.981,228.0583,47.59388,48.75025
858080.6,221.278,228.5632,47.89145,48.81305
858113.9,223.3356,228.8527,48.15514,48.84899
858148.9,225.5609,229.0501,48.43728,48.87347
858181.8,228.484,229.3423,48.80322,48.90966
858214.6,232.1846,229.7467,49.25894,48.95964
858247.6,236.7129,230.0808,49.80535,49.00088
858283.5,242.1796,230.1548,50.44897,49.01
858314.7,247.2506,229.9506,51.03075,48.98483
858347.9,251.9817,229.0531,51.56067,48.87384
858382.8,256.2218,228.0913,52.02534,48.75436
858414.7,259.4803,227.8453,52.37599,48.72371
858447.4,262.2945,227.8513,52.67442,48.72445
858481.3,264.7325,227.6002,52.9297,48.69313
858515.4,266.7412,227.5113,53.13779,48.68203
858549.9,268.3147,227.5942,53.2994,48.69238
858583.6,268.721,227.6922,53.34093,48.70461
858619.4,268.5117,228.1777,53.31955,48.76512
858649.2,267.3954,228.3418,53.20512,48.78554
858684.3,265.9081,228.2779,53.05172,48.77759
858716.8,264.2044,228.0519,52.87466,48.74945
858749.1,262.1667,228.2783,52.66096,48.77763
858786.9,259.3795,228.489,52.36523,48.80383
858820.1,256.4086,228.504,52.04559,48.8057
858851.7,253.3552,228.1513,51.71225,48.76183
858886.9,249.7727,228.0432,51.31477,48.74837
858919.8,245.4867,228.2289,50.83002,48.77149
858950.8,240.1354,228.3674,50.21032,48.78871
858988.1,234.452,228.7509,49.53406,48.83636
859018.3,228.8463,228.8618,48.84819,48.85012
859051.3,223.4187,229.3093,48.16573,48.90557
859087.2,218.4324,229.3909,47.52231,48.91567
859121,213.5146,229.3336,46.87189,48.90858
859154.3,209.6348,228.6846,46.34737,48.82813
859185.6,206.2143,228.1488,45.87645,48.76152
859225.9,204.4297,227.1096,45.62754,48.63182
859254.1,203.9779,225.4723,45.56417,48.42611
859288.6,203.7813,224.5948,45.53654,48.31517
