Time Stamp(ms),Intersection,,Angle,
,x,y,x,y
635389.4,326.34,237.0755,58.49763,49.84858
635405,326.7018,237.0063,58.52591,49.84034
635418.9,326.9754,237.0556,58.54726,49.84621
635434.7,327.2133,237.3597,58.56581,49.88241
635451.8,327.56,237.4535,58.5928,49.89356
635469.6,327.8748,237.637,58.61727,49.91537
635486.3,328.1299,237.8184,58.63707,49.93691
635502.9,328.4579,237.9297,58.66251,49.95012
635520.2,328.6354,238.0899,58.67626,49.96911
635535.1,328.689,237.8884,58.68041,49.94521
635552.8,328.7911,237.6455,58.68831,49.91638
635570.3,328.8888,237.3442,58.69587,49.88057
635585.6,328.7585,237.6838,58.68579,49.92093
635605.8,328.1178,238.9475,58.63614,50.07054
635619.8,327.4282,239.9672,58.58254,50.19058
635635.9,326.8921,240.6093,58.54076,50.26586
635652.9,326.5919,240.3131,58.51732,50.23117
635671.8,326.2427,240.4014,58.49002,50.24151
635688.1,325.8615,240.6576,58.46016,50.27151
635703.7,325.246,240.9642,58.41185,50.30737
635721.1,324.9044,240.6334,58.38497,50.26868
635738.1,324.7406,239.8497,58.37207,50.17677
635752.4,324.9061,239.1505,58.38511,50.09448
635768.3,324.9467,238.7605,58.38831,50.04846
635784.8,324.81,238.449,58.37754,50.01163
635803.1,324.6569,238.1202,58.36547,49.9727
635822.9,324.594,237.8016,58.36052,49.93492
635839.8,324.5328,237.4778,58.3557,49.89646
635851.8,324.3985,237.3878,58.3451,49.88576
635870.9,324.2023,237.2872,58.32962,49.87378
635886.9,324.0521,237.1579,58.31775,49.85839
635903.5,323.913,237.0072,58.30676,49.84045
635920.3,323.7171,236.8543,58.29126,49.82222
635936.7,323.4695,236.6448,58.27165,49.79723
635951.9,323.1771,236.4366,58.24847,49.77237
635968.6,322.8041,236.1267,58.21886,49.73531
635987.4,322.4516,235.5879,58.19082,49.67074
636003.9,322.0022,234.985,58.15502,49.59829
636020.1,321.286,234.0741,58.09781,49.48841
636034.6,320.4691,233.2578,58.03233,49.38955
636053.1,319.5066,232.4002,57.95487,49.28522
636069.5,318.718,231.59,57.89115,49.18627
636087.5,318.078,230.8457,57.83928,49.09501
636102.6,317.5134,229.9779,57.79339,48.98819
636118.5,316.908,229.0549,57.74406,48.87407
636134.4,316.2087,228.1974,57.68691,48.76757
636154.4,315.6701,227.3793,57.64277,48.66554
636168.1,314.9789,226.4463,57.58595,48.54868
636185.2,314.1396,225.3109,57.51674,48.40574
636204.1,313.3282,224.2768,57.44957,48.27485
636218.4,312.4615,223.1178,57.37755,48.12735
636235.8,311.4577,221.7499,57.29378,47.95216
636252.1,310.5683,220.4577,57.21925,47.78558
636271.6,309.6517,219.2278,57.14211,47.62602
636287.6,308.6508,218.0766,57.05751,47.47578
636303.6,307.6692,216.8264,56.97416,47.31166
636321,306.7225,215.6989,56.89343,47.16276
636336.6,305.8018,214.6101,56.81458,47.01817
636353.4,304.9312,213.5179,56.7397,46.87233
636369.9,304.2455,212.5062,56.68053,46.73654
636387.1,303.5683,211.7298,56.6219,46.63186
636404.4,302.8904,211.1874,56.56302,46.5585
636421.9,302.2954,210.7959,56.5112,46.50541
636436.9,301.963,210.4065,56.48218,46.45251
636451.8,301.6395,209.9521,56.4539,46.39065
636469.9,301.4562,209.4901,56.43786,46.32761
636487.4,301.2615,209.0898,56.42081,46.27288
636503.3,301.1309,208.8085,56.40936,46.23435
636520.5,300.9812,208.5628,56.39623,46.20065
636536,300.8134,208.2688,56.3815,46.16027
636551.6,300.7179,207.9807,56.37311,46.12065
636570.1,300.607,207.6717,56.36337,46.07808
636587.1,300.6175,207.3844,56.36428,46.03846
636603.5,300.6099,207.0524,56.36362,45.99259
636621.6,300.6615,207.0506,56.36815,45.99233
636636.7,300.7336,207.0716,56.37449,45.99524
636652.4,300.8642,207.1561,56.38596,46.00692
636667.9,301.0816,207.3903,56.40504,46.03927
636686.9,301.2066,207.662,56.41599,46.07674
636703,301.3527,207.9842,56.42879,46.12113
636719.8,301.4717,208.31,56.43922,46.16594
636734.8,301.577,208.8229,56.44844,46.23633
636752.2,301.7736,209.3678,56.46563,46.3109
636769.1,302.0468,209.9836,56.48951,46.39494
636786,302.3126,210.5549,56.5127,46.47269
636802.3,302.6683,211.1369,56.54369,46.55165
636819.3,303.0554,211.6542,56.57737,46.62164
636834.6,303.3612,212.0761,56.60394,46.6786
636851.6,303.7447,212.4281,56.63718,46.72602
636868.5,304.1742,212.7216,56.67436,46.76551
636887.1,304.4716,212.9616,56.70006,46.79774
636902.2,304.7219,213.3334,56.72166,46.84761
636918.7,304.9199,213.5773,56.73873,46.88028
636935.8,305.1762,213.8532,56.76081,46.91719
636952.4,305.4326,214.098,56.78286,46.94989
636969.8,305.731,214.2778,56.8085,46.97387
636988.3,306.2524,214.2746,56.85321,46.97345
637003.8,306.8042,214.3753,56.90041,46.98688
637022.5,307.5054,214.7397,56.96022,47.03541
637042.3,308.0573,215.2296,57.00716,47.10052
637058.3,308.5226,215.5802,57.04665,47.14703
637070.7,309.2352,216.0727,57.10696,47.21221
637090,309.7364,216.4391,57.14925,47.2606
637105.6,310.4517,216.9106,57.20945,47.32275
637122.1,311.2584,217.3943,57.2771,47.38634
637138.3,312.1354,217.9805,57.35038,47.46321
637154.8,313.3106,218.7033,57.44811,47.55767
637173.2,314.5542,219.3026,57.55096,47.63575
637190.8,315.6875,219.8874,57.6442,47.7117
637205.3,317.1454,220.5262,57.76342,47.79443
637223,318.4479,221.0557,57.86928,47.8628
637240.3,319.7509,221.4955,57.97456,47.91945
637256.5,320.9994,221.8508,58.07486,47.96512
637274.4,322.3633,222.2459,58.18379,48.01582
637291.2,323.4355,222.5289,58.26896,48.05208
637305.4,324.7194,222.6601,58.3704,48.06887
637323.6,326.3815,222.8761,58.50087,48.09649
637343.1,327.912,223.0418,58.62016,48.11765
637357.1,329.3546,223.1664,58.73186,48.13355
637372.3,330.8566,223.3724,58.8474,48.15983
637390.6,332.1134,223.6389,58.94349,48.19378
637406.8,333.3658,223.8634,59.03871,48.22233
637423.6,334.5684,224.0394,59.12965,48.2447
637441.3,336.0177,224.2229,59.23861,48.26801
637455.2,337.1953,224.5676,59.32663,48.31172
637472.1,338.7779,224.8661,59.44421,48.34953
637489.9,340.3044,225.2126,59.55685,48.39333
637507.1,341.7981,225.4776,59.66636,48.42677
637523.9,343.3353,225.6738,59.77831,48.45152
637539.3,344.8359,225.94,59.88687,48.48505
637554.6,346.4928,226.2569,60.00592,48.52489
637571.6,348.2566,226.5209,60.13171,48.55805
637588.8,349.8784,226.8877,60.24654,48.60403
637605.4,351.4651,227.2675,60.35811,48.65157
637622,352.9389,227.736,60.46106,48.71008
637639.2,354.0314,228.1771,60.53696,48.76505
637654.8,354.8779,228.7958,60.59552,48.84193
637671.4,355.6253,229.4529,60.64705,48.92334
637692.8,356.1892,230.1248,60.68582,49.00631
637704.9,356.4702,230.7139,60.7051,49.07882
637724.2,356.3303,231.251,60.69551,49.14475
637739.4,355.7907,231.5865,60.65843,49.18584
637754.4,355.1841,231.9442,60.61665,49.22958
637772.2,354.2189,232.4014,60.54995,49.28537
637789.9,352.7947,233.0349,60.45102,49.36246
637806.6,351.5876,233.6483,60.36669,49.43689
637822.8,350.2397,234.337,60.27201,49.52018
637838.6,348.5327,235.1649,60.15132,49.61993
637855.3,346.8568,235.851,60.03195,49.70229
637872.3,344.8941,236.3559,59.89106,49.76272
637888.2,343.1935,236.7781,59.76801,49.81313
637905.9,341.6429,237.332,59.65501,49.87911
637922,340.1349,237.8136,59.54439,49.93634
637938.2,338.6821,238.3248,59.43712,49.99693
637953.5,337.1592,238.9774,59.32394,50.07407
637970.1,335.5152,239.5934,59.20091,50.14664
637988.1,334.0469,240.189,59.09027,50.21661
638004.1,332.274,240.7462,58.95572,50.28188
638021.4,330.4245,241.1533,58.81424,50.32946
638037.6,328.4156,241.7075,58.65924,50.39407
638054.6,326.1563,242.4407,58.48325,50.47928
638071.7,324.134,243.3511,58.32422,50.58466
638091,322.3045,244.1821,58.17911,50.68044
638104.6,320.5229,244.9371,58.03664,50.76711
638120.3,318.5736,245.8206,57.87946,50.86815
638137.8,316.353,246.8505,57.69872,50.98537
638154.5,314.2888,247.8168,57.52906,51.09481
638171,312.1908,248.8476,57.355,51.211
638188,310.4134,249.6777,57.20623,51.30413
638204.3,308.7603,250.413,57.06678,51.38632
638221.1,307.0044,251.1892,56.91751,51.47275
638237.8,305.262,252.1124,56.76819,51.57514
638257.4,303.4319,253.383,56.61007,51.71529
638274.8,301.9693,254.4633,56.48273,51.83379
638292.3,300.5381,255.5469,56.35731,51.95201
638304.3,299.4584,256.4084,56.26213,52.04557
638319.9,298.7129,257.2312,56.19614,52.13455
638337.2,297.9326,258.0522,56.12683,52.22299
638353.6,297.1508,258.874,56.05712,52.31116
638370.1,296.6047,260.0348,56.00829,52.43511
638387.3,296.1943,261.1109,55.9715,52.5494
638404.4,295.7572,262.163,55.93225,52.66056
638421.7,295.3261,263.1582,55.89346,52.76519
638437.3,294.7237,264.2762,55.83912,52.88214
638453.3,293.938,265.6061,55.76802,53.02045
638472.1,293.3684,266.6491,55.71631,53.1283
638487,292.5651,267.6263,55.64316,53.22884
638505.1,291.6487,268.3907,55.55936,53.30717
638527.4,290.965,268.9482,55.49661,53.36411
638537.6,290.2422,269.1107,55.43007,53.38069
638558.5,289.5604,269.0835,55.36708,53.37791
638573.1,288.8561,268.8424,55.3018,53.35332
638587.6,287.806,268.4072,55.20407,53.30886
638605.4,286.732,267.8194,55.10363,53.24866
638621.9,285.4078,266.7709,54.97908,53.14085
638639.2,284.0497,266.0049,54.85054,53.06174
638654.4,282.1949,264.9314,54.67366,52.95039
638672.7,280.7545,264.1106,54.53522,52.86487
638688.4,279.1127,263.1274,54.37627,52.76197
638706.5,277.5858,262.3786,54.22733,52.68327
638722.4,276.0604,261.8238,54.07745,52.62479
638738.6,274.2666,261.1989,53.89981,52.55872
638759.1,272.2825,261.0382,53.70156,52.5417
638771.6,269.6348,260.8815,53.43404,52.52509
638791,267.6693,260.7007,53.23326,52.50591
638805.6,264.9462,260.3437,52.95193,52.46798
638826.2,262.7951,260.0138,52.72708,52.43287
638842.2,260.2681,259.7842,52.45994,52.40842
638857.6,258.0822,259.3836,52.22622,52.36566
638870.9,255.1832,258.819,51.91241,52.30527
638888.1,252.2823,258.2354,51.59393,52.24268
638906.2,249.8756,257.7507,51.32628,52.19055
638921.9,247.0163,257.0992,51.00418,52.1203
638943,244.7068,256.7177,50.74071,52.07906
638960.1,242.7359,256.3912,50.51349,52.0437
638975,240.414,256.1041,50.24299,52.01257
638998.7,239.1146,255.7514,50.09024,51.97426
639013.6,238.0742,255.2841,49.96724,51.9234
639025.8,237.2578,254.4124,49.87029,51.82822
639043.2,236.5538,253.5814,49.78637,51.73711
639058.5,235.9921,252.7376,49.71919,51.64421
639074.6,235.606,251.8563,49.67292,51.54678
639092.7,235.1729,251.4193,49.6209,51.49832
639109.5,234.6815,251.2118,49.56174,51.47526
639128.3,234.2083,251.0461,49.50464,51.45684
639146,233.6668,250.8237,49.43913,51.43209
639158.4,233.0834,250.389,49.36836,51.38364
639174.4,232.4515,249.5734,49.29147,51.29245
639192.1,232.1168,248.5456,49.25066,51.17702
639206.7,231.5807,247.7096,49.18513,51.0827
639224.8,230.8989,246.966,49.10154,50.99847
639243.1,230.1272,245.7902,49.00659,50.86468
639262.5,229.2277,244.8442,48.89547,50.75647
639276.6,228.6054,244.1054,48.81829,50.67161
639292.4,228.0139,243.3393,48.74472,50.58329
639309.5,227.4332,242.3591,48.67228,50.4698
639326.7,226.7702,241.3053,48.58932,50.3472
639345.7,226.3821,240.5977,48.54062,50.26451
639359.5,225.9991,239.5901,48.49247,50.14626
639375.8,225.5783,238.5301,48.43948,50.02122
639394.9,225.1786,237.5848,48.38903,49.90917
639410.1,224.8557,236.4901,48.34821,49.77876
639426.1,224.4587,235.4004,48.29793,49.64824
639444.8,224.0589,234.3785,48.24718,49.52519
639459.1,223.8286,233.2556,48.21791,49.38927
639475,223.6746,231.9865,48.19832,49.23475
639496.1,223.4823,230.7596,48.17383,49.08443
639508.9,223.1795,229.7684,48.13522,48.96232
639526.3,223.0004,228.8064,48.11236,48.84325
639542.9,222.7269,227.9801,48.07741,48.74051
639561.8,222.3783,227.2793,48.03279,48.65305
639577.3,221.9088,226.5278,47.97258,48.55891
639592.1,221.3105,225.4404,47.89564,48.42209
639608.6,220.8018,224.4732,47.83004,48.29976
639624.4,219.8481,223.2626,47.70661,48.14582
639640.8,218.5626,221.9861,47.53931,47.98249
639657.4,217.308,220.8584,47.375,47.83734
639673.4,215.7786,219.4695,47.17331,47.65746
639690.8,214.4675,218.2049,46.99917,47.49257
639710.2,213.3967,217.3224,46.85609,47.3769
639724.4,212.6934,216.4006,46.76172,47.25552
639742.9,212.2749,215.4342,46.7054,47.12768
639761.6,212.4941,214.6149,46.73491,47.0188
639778.4,212.728,213.9404,46.76636,46.92884
639793.8,213.184,213.3629,46.82759,46.85158
639809.8,214.0011,212.8953,46.93694,46.78885
639827.8,214.5985,212.3263,47.01662,46.71232
639842.3,215.2873,211.8629,47.10818,46.64983
639856.8,215.9411,211.4869,47.19481,46.59903
639873.1,216.4733,210.9542,47.26512,46.52689
639890.1,216.8137,210.4351,47.30998,46.45641
639907.4,217.1837,209.7811,47.35866,46.36734
639924.7,217.4082,209.3233,47.38816,46.30482
639941.7,217.5765,208.7947,47.41026,46.23246
639958.4,217.8303,208.2265,47.44353,46.15446
639974.9,218.1719,207.6859,47.48826,46.08004
639990.8,218.7368,207.1944,47.56205,46.01221
640011.9,219.228,206.7625,47.62604,45.95246
640024.3,219.8763,206.3972,47.71027,45.90184
640041.5,220.5685,205.9952,47.7999,45.84601
640062.6,221.1987,205.7679,47.88123,45.81439
640073.9,222.0064,205.678,47.9851,45.80188
640090.4,222.5397,205.4852,48.05346,45.77502
640112,222.7294,205.2803,48.07772,45.74644
640129.5,222.9444,205.1412,48.1052,45.72704
640141.6,223.3779,204.9601,48.16052,45.70174
640164.4,223.5948,204.7307,48.18815,45.66967
640174.4,223.9,204.4391,48.22699,45.62885
640190.8,224.2926,204.2276,48.27686,45.59921
640208.1,224.8358,204.0325,48.34568,45.57182
640224.6,225.6041,203.7898,48.44273,45.53774
640247.3,226.233,203.4824,48.52189,45.4945
640260.8,226.971,203.3295,48.61447,45.47297
640280.2,227.8097,203.1828,48.71927,45.4523
640295.6,228.7566,202.9688,48.83707,45.42211
640312.3,229.5081,202.678,48.93017,45.38103
640324.9,230.2617,202.5628,49.02317,45.36476
640342.4,230.9377,202.402,49.10631,45.34201
640358.3,231.6112,202.2917,49.18887,45.32639
640374.4,232.2343,202.1769,49.26499,45.31013
640391.6,232.8314,202.0056,49.33773,45.28585
640408.2,233.3002,201.7558,49.39469,45.25039
640425,233.7172,201.5053,49.44523,45.21481
640445.5,234.1294,201.4387,49.4951,45.20535
640462.5,234.5057,201.4521,49.54054,45.20725
640479.7,234.8928,201.3387,49.5872,45.19111
640493.1,235.2682,201.1707,49.63234,45.1672
640508.4,235.7068,200.9098,49.685,45.13003
640524.6,236.1055,200.5157,49.73277,45.07377
640541.1,236.5012,200.1345,49.78008,45.01926
640558.5,236.9349,199.6248,49.83183,44.94621
640576.3,237.3893,199.056,49.88593,44.86446
640593.6,237.9328,198.5204,49.95048,44.78728
640610.5,238.5127,197.9338,50.01916,44.7025
640628,239.294,197.4949,50.11139,44.63892
640647,240.0574,197.2207,50.20117,44.59912
640664.1,240.8153,196.9464,50.28996,44.55925
640680.4,241.5266,196.7474,50.373,44.53029
640696.1,242.3934,196.5992,50.47379,44.5087
640712,243.3882,196.5025,50.58895,44.49461
640728.8,244.6634,196.4221,50.73573,44.48289
640746.4,245.983,196.3725,50.88667,44.47566
640764.2,247.265,196.2993,51.03238,44.46497
640780.2,248.4428,196.194,51.16544,44.44962
640795.9,249.6393,196.1817,51.29983,44.44781
640812.8,250.9408,196.2363,51.44513,44.45579
640829.6,252.2908,196.2084,51.59487,44.45171
640847.8,253.4838,196.1019,51.72638,44.43616
640863.4,255.2427,196.0193,51.91888,44.4241
640880.2,257,195.8857,52.10958,44.40456
640897.2,258.5878,195.7561,52.2805,44.38561
640910.9,260.7564,195.7799,52.51181,44.3891
640929.1,262.8674,195.7923,52.73468,44.39091
640946.1,265.0676,195.7744,52.96455,44.38829
640961.6,267.6487,195.8098,53.23114,44.39347
640978.8,269.8419,195.9327,53.45509,44.41143
640994.2,272.3315,196.0591,53.70647,44.42992
641011,274.7478,195.9727,53.94762,44.41729
641028.1,277.0188,195.875,54.17174,44.40301
641044.9,279.8198,195.9626,54.44487,44.4158
641064,281.7775,195.9411,54.63363,44.41266
641078.3,284.2852,195.5887,54.87289,44.36111
641097.3,286.9919,195.2926,55.12799,44.31771
641114.4,289.2477,194.8328,55.33812,44.25021
641130.1,292.1421,194.3728,55.60452,44.18252
641149.9,294.0344,194.0254,55.77675,44.13129
641164.3,296.484,193.6341,55.99747,44.07349
641181,298.8055,193.1086,56.20435,43.99568
641197.8,300.7071,192.7025,56.37216,43.93541
641214.1,303.2913,191.9587,56.59786,43.82471
641232.7,305.2545,191.1828,56.76755,43.70878
641248.4,306.9923,190.6949,56.91648,43.63566
641262.6,308.9747,190.372,57.08493,43.58717
641279.9,310.6598,190.2126,57.22693,43.5632
641295.3,312.7834,189.7581,57.40434,43.49475
641312.9,314.7686,189.3173,57.56864,43.42823
641331.9,316.6583,189.08,57.72367,43.39235
641348.3,318.5306,188.9825,57.87598,43.37759
641362.9,320.6338,188.8822,58.04555,43.36242
641381.4,322.862,189.0807,58.22345,43.39244
641398.5,324.5022,189.175,58.35328,43.40672
641412.6,326.4966,189.2406,58.50987,43.41664
641430.5,328.4686,189.1397,58.66334,43.40138
641446.9,330.4742,189.0291,58.81805,43.38465
641463.8,332.3966,188.7841,58.96506,43.34755
641479.7,334.3439,188.3215,59.11271,43.2774
641496.1,336.3071,188.0545,59.26028,43.23681
641513.9,338.3993,187.908,59.41616,43.21453
641531.4,340.0529,187.7666,59.53835,43.19301
641548.2,341.9696,187.6285,59.67888,43.17197
641565.5,343.6714,187.681,59.80268,43.17998
641582.6,345.2586,187.5315,59.91732,43.15719
641598.2,346.9529,187.521,60.03883,43.15559
641614.1,348.5876,187.7136,60.15521,43.18494
641629.6,350.1221,187.9192,60.26373,43.21623
641647.3,351.5628,187.8573,60.36496,43.20681
641664,352.9915,187.62,60.46472,43.17068
641680.9,354.0689,187.42,60.53955,43.14019
641696.6,355.6651,187.325,60.64979,43.1257
641712.4,357.0687,187.5551,60.7461,43.1608
641730.2,358.601,187.4279,60.85059,43.14139
641747.4,360.0556,187.288,60.94915,43.12005
641763.9,361.5848,187.1628,61.05211,43.10094
641780.3,363.2141,187.0007,61.16109,43.07617
641797.6,364.877,186.724,61.27153,43.03384
641813.3,366.5381,186.4721,61.38109,42.99526
641831.7,368.2372,186.3947,61.49237,42.9834
641847.6,369.9158,186.2034,61.60152,42.95405
641866.1,371.3932,186.0052,61.69697,42.92363
641881.9,372.8674,185.7442,61.79161,42.8835
641898.6,374.3311,185.4453,61.88502,42.83749
641913.9,376.1873,184.9996,62.00265,42.76876
641931.3,377.9297,184.7245,62.11226,42.72626
641947.5,379.8043,184.4469,62.22929,42.68332
641964.3,381.9377,184.5227,62.36139,42.69505
641981.5,383.9384,184.7039,62.48423,42.72308
641998.7,386.0083,184.9183,62.61026,42.7562
642014.6,388.6407,185.0416,62.769,42.77524
642033.6,391.3444,185.0754,62.9303,42.78046
642056.3,392.9652,185.0957,63.02614,42.7836
642067.3,394.4918,185.2141,63.11584,42.80185
642084.6,396.5072,185.5119,63.23342,42.84775
642101.6,398.3009,185.9084,63.33727,42.90875
642115.1,400.4536,186.1391,63.46091,42.94419
642130,402.7095,186.3922,63.58936,42.98301
642148.1,404.6697,186.6008,63.70003,43.01498
642167.3,406.4756,186.8685,63.80122,43.05596
642186.2,408.0442,187.1514,63.88854,43.09919
642199.3,409.6927,187.5441,63.97972,43.15911
642217,410.6901,187.7505,64.03461,43.19056
642237.9,411.5934,187.8865,64.08412,43.21126
642249.8,412.2536,187.941,64.1202,43.21956
642265.9,412.7765,188.1887,64.14871,43.25722
642282.3,413.6935,188.5665,64.19856,43.31456
642301.9,414.4723,188.6812,64.24078,43.33195
642316.8,415.1274,188.6159,64.27617,43.32206
642333.2,416.121,188.3444,64.32969,43.28087
642352.8,417.34,188.2348,64.39507,43.26422
642368.9,418.5219,188.3035,64.45816,43.27465
642383.1,419.746,188.2287,64.5232,43.2633
642399.3,420.8922,188.2401,64.58382,43.26502
642415.4,422.2765,187.9129,64.65668,43.21529
642439.1,423.2513,187.4066,64.70774,43.13814
642452.1,423.9364,187.1618,64.74352,43.10078
642466.3,424.2947,186.89,64.76219,43.05923
642483.9,424.6554,186.8173,64.78097,43.04813
642499.4,424.7344,186.8457,64.78507,43.05246
642516.3,425.0112,186.8733,64.79946,43.05668
642532.8,425.1045,187.0771,64.8043,43.08784
642549.8,425.2103,187.3218,64.80979,43.12521
642566.3,425.2145,187.6383,64.81001,43.17347
642583.4,425.0469,187.9668,64.80131,43.22349
642598.7,425.0219,188.234,64.80001,43.2641
642615.6,425.081,188.5717,64.80309,43.31536
642632.6,425.4543,188.864,64.82246,43.35965
642649.4,426.0867,189.4208,64.8552,43.44386
642666.5,426.6737,190.0863,64.88553,43.54419
642684.2,427.1206,190.7907,64.90857,43.65002
642701.3,427.6688,191.5782,64.93678,43.76791
642716.8,428.1247,192.4273,64.9602,43.89449
642734.6,428.5664,193.304,64.98285,44.02463
642749.7,429.0735,194.5765,65.0088,44.21251
642767,429.3469,195.6223,65.02277,44.36602
642782.6,429.6432,197.0088,65.0379,44.56832
642799.4,429.7697,198.4146,65.04436,44.772
642815.4,429.8899,199.8276,65.05048,44.97529
642832.7,429.8845,201.6313,65.05021,45.23271
642851.6,429.9005,203.1216,65.05102,45.44366
642867.1,429.9746,205.0417,65.0548,45.71315
