Time Stamp(ms),Intersection,,Angle,
,x,y,x,y
649865,319.5173,251.4266,57.95573,51.49913
649879.1,319.9435,251.4814,57.99007,51.50521
649896.5,320.2602,251.5937,58.01554,51.51767
649912.9,320.6039,251.5855,58.04315,51.51677
649929.1,321.0916,251.6187,58.08224,51.52045
649947.4,321.4307,251.6594,58.10938,51.52496
649963.4,321.808,251.699,58.13952,51.52935
649980.4,322.2296,251.5108,58.17314,51.50847
649997.7,322.621,251.5108,58.2043,51.50847
650012.8,323.0386,251.5761,58.23748,51.51572
650031.2,323.4116,251.6932,58.26706,51.52871
650047.3,323.7555,251.7464,58.2943,51.5346
650068.3,324.0129,251.8577,58.31466,51.54694
650080.6,324.2552,252.0258,58.33379,51.56556
650097.3,324.4929,252.1161,58.35255,51.57555
650118.3,324.6841,252.0641,58.36762,51.56979
650134.1,324.737,252.1174,58.37179,51.57569
650147.4,324.7442,252.1195,58.37236,51.57593
650164.6,324.685,252.116,58.36769,51.57553
650183.4,324.5288,252.1266,58.35538,51.57671
650199,324.3736,252.0908,58.34314,51.57275
650213.9,324.1419,252.0634,58.32485,51.56971
650231.4,323.7784,252.0119,58.29611,51.56401
650248.3,323.3759,251.918,58.26423,51.55362
650265.8,322.9252,251.939,58.22848,51.55594
650280.6,322.3207,251.9705,58.1804,51.55943
650297.9,321.7549,252.0246,58.13528,51.56542
650313.8,321.0406,252.1217,58.07816,51.57616
650331.1,320.3764,252.2103,58.02488,51.58597
650348.2,319.621,252.232,57.9641,51.58836
650365,318.8801,252.3074,57.90427,51.59671
650381.8,318.0999,252.2877,57.84106,51.59453
650399,317.3322,252.4209,57.77864,51.60925
650414.6,316.6121,252.5463,57.7199,51.6231
650431.9,315.8645,252.6461,57.65871,51.63411
650448.5,314.7648,252.8017,57.56832,51.65128
650466.9,313.7349,253.0216,57.48327,51.67552
650482.5,312.5438,253.2202,57.3844,51.69738
650500.4,311.3805,253.4161,57.28732,51.71894
650514.9,310.0979,253.5836,57.1797,51.73735
650530.6,308.395,253.7551,57.03582,51.75618
650548.1,306.3983,253.9629,56.86571,51.77898
650564.6,304.435,254.0411,56.6969,51.78756
650582.3,302.3243,254.0673,56.51372,51.79042
650599.4,300.4213,254.1642,56.34703,51.80105
650614.8,297.8501,254.5377,56.11948,51.84193
650632.4,295.306,255.0165,55.89164,51.89423
650649.5,292.8823,255.5872,55.67207,51.95639
650666.4,290.3293,256.2717,55.43809,52.03075
650682.4,287.836,256.9794,55.20688,52.10736
650699.2,285.6622,257.5421,55.00307,52.16808
650715.3,283.4686,258.1562,54.79529,52.23417
650732.6,281.4014,258.7288,54.5975,52.29561
650749.1,279.4304,259.2827,54.40712,52.35488
650765.9,277.4623,260.0334,54.21524,52.43496
650782.6,275.4785,260.7649,54.02,52.51272
650801.2,274.0052,261.2558,53.8738,52.56474
650815.6,272.356,261.6365,53.70893,52.605
650834.9,270.8193,262.0079,53.55414,52.64421
650851.1,269.0362,262.5437,53.37309,52.70065
650869.3,267.2856,263.0346,53.19384,52.75223
650885.9,265.7007,263.5142,53.03024,52.80251
650901.8,264.016,263.9255,52.85498,52.84553
650919.7,262.4529,264.2663,52.6911,52.88111
650935.4,260.2759,264.4076,52.46077,52.89585
650951.4,258.4254,264.4473,52.26307,52.89999
650969.3,256.5948,264.5308,52.06575,52.90869
650984.9,254.3099,264.696,51.817,52.9259
651005.2,252.8593,264.8429,51.65764,52.94119
651018.7,251.0312,265.1025,51.45519,52.96818
651035.6,249.3243,265.151,51.26453,52.97321
651051.9,247.5784,265.0859,51.06786,52.96645
651068,245.8299,265.1297,50.86921,52.971
651086.6,244.1658,265.2927,50.67856,52.98793
651102.6,242.223,265.7267,50.45401,53.03294
651121.2,240.1839,266.2023,50.216,53.08216
651136.1,238.089,266.7706,49.96901,53.14082
651153.3,236.3113,267.1293,49.75739,53.17776
651167.5,234.3486,267.4517,49.52158,53.21091
651184.8,232.7428,267.8234,49.32695,53.24907
651201.4,230.9771,268.2813,49.11114,53.29598
651217.4,229.2652,268.7475,48.90012,53.34364
651234.5,227.3728,269.2698,48.66473,53.3969
651251.3,225.3639,269.9261,48.41243,53.46365
651266.9,223.5063,270.5951,48.17689,53.53146
651283.3,221.5948,271.2025,47.93223,53.59285
651300.7,220.1497,271.9589,47.74571,53.66904
651316.5,218.591,272.6801,47.54303,53.74143
651332.9,216.8399,273.2871,47.31343,53.80217
651351,214.8681,273.7664,47.05249,53.85001
651367.1,212.3257,274.4299,46.71224,53.91605
651389.5,209.293,275.3544,46.30067,54.00772
651408.3,208.4253,275.4785,46.18177,54.01999
651416.1,207.758,275.4524,46.08998,54.01741
651433.4,206.8038,275.5005,45.95818,54.02217
651450.6,206.3341,275.5151,45.89308,54.02362
651467.6,205.7873,275.5089,45.81709,54.023
651483.9,205.2908,275.6007,45.74792,54.03207
651500.4,205.0671,275.5638,45.71669,54.02843
651517.8,205.0679,275.0197,45.7168,53.97458
651534.6,205.4621,274.7583,45.77181,53.94866
651550.3,206.5242,273.9418,45.91944,53.86749
651568.1,207.3541,273.3298,46.03426,53.80644
651585.7,208.196,272.6383,46.15026,53.73725
651601.3,208.8409,272.0129,46.23878,53.67448
651618.4,209.3705,271.4875,46.31127,53.62159
651634.1,209.6337,270.9258,46.34722,53.56491
651658.9,209.713,270.8069,46.35805,53.55288
651667.3,209.5131,270.4019,46.33076,53.5119
651685.2,209.4563,270.1425,46.32299,53.4856
651701.4,209.7171,269.6726,46.3586,53.43789
651717.8,210.3359,269.2438,46.44291,53.39425
651735,210.8961,268.8775,46.51901,53.3569
651751.6,211.5267,268.5245,46.60442,53.32085
651768.4,212.0996,268.2637,46.68177,53.29418
651785.1,212.8092,268.1405,46.77728,53.28156
651801.8,213.7098,267.9937,46.89801,53.26652
651823.1,214.5779,267.7646,47.01388,53.24304
651840.9,215.5531,267.4488,47.14343,53.21061
651855.9,217.0363,267.1369,47.33928,53.17855
651868.7,218.0666,266.7979,47.47447,53.14363
651886.9,218.984,266.535,47.59428,53.11652
651902.8,219.989,266.3799,47.72489,53.1005
651919.5,220.9134,266.2886,47.84444,53.09108
651935.8,221.8508,266.0571,47.96512,53.06714
651952.8,222.6263,265.5531,48.06454,53.01495
651969.2,223.1884,265.0544,48.13636,52.96318
651986,223.5105,264.4855,48.17743,52.90397
652005,223.8356,264.0669,48.2188,52.8603
652021.8,224.1898,263.6646,48.26381,52.81824
652037.6,224.5887,263.3483,48.3144,52.78513
652053.8,225.0837,262.9716,48.37704,52.74562
652072.3,225.5757,262.5076,48.43914,52.69685
652089.6,226.0217,262.0623,48.49533,52.64994
652106.5,226.5827,261.7764,48.5658,52.61978
652122.5,227.1199,261.6472,48.6331,52.60613
652139.1,227.7302,261.5911,48.70935,52.6002
652155.1,228.6529,261.5158,48.82419,52.59225
652173.3,229.4137,261.3922,48.91848,52.57918
652188.9,230.4878,261.0989,49.05101,52.54813
652215.5,231.2253,261.0065,49.1416,52.53834
652230.4,231.7901,260.9215,49.21075,52.52933
652243.4,232.4097,260.7636,49.28638,52.51258
652259.2,233.0043,260.6117,49.35875,52.49646
652274.6,233.7435,260.5155,49.44842,52.48624
652292.4,233.3642,260.6454,49.40244,52.50003
652307.4,233.7005,260.4946,49.44321,52.48402
652324.3,233.9028,260.2733,49.4677,52.4605
652340,233.8983,259.9732,49.46716,52.42855
652357.2,233.9105,259.7207,49.46863,52.40165
652373.5,233.9091,259.3538,49.46847,52.36248
652390.2,233.9753,258.9904,49.47648,52.32362
652408.1,234.0357,258.6381,49.48378,52.28589
652423.3,234.1446,258.1459,49.49694,52.23306
652438.1,234.2316,257.5119,49.50745,52.16483
652455.3,234.2125,256.7871,49.50515,52.08657
652473.3,234.222,256.0419,49.5063,52.00582
652493.4,234.2013,255.1311,49.50379,51.90672
652508.3,234.0812,254.1314,49.48928,51.79745
652522.9,233.9528,253.1095,49.47375,51.6852
652543.6,233.7711,252.1911,49.45177,51.58384
652557.5,233.5864,250.8974,49.42939,51.4403
652573,233.4056,249.4784,49.40747,51.28181
652589.2,233.2101,247.7491,49.38375,51.08716
652606.6,233.1956,246.195,49.38199,50.91083
652622.3,233.1693,244.6667,49.3788,50.73611
652639.5,233.0602,243.4169,49.36554,50.59226
652655.8,232.9809,242.2042,49.3559,50.45183
652673.8,233.0986,240.9645,49.37021,50.30741
652691.4,233.2102,239.8448,49.38376,50.1762
652706.7,233.3406,238.6892,49.39958,50.04003
652723.8,233.5842,237.6494,49.42912,49.91684
652740.9,233.6999,236.8464,49.44314,49.82128
652757.6,233.6923,236.228,49.44223,49.74743
652772.3,233.7328,235.6267,49.44712,49.6754
652793,233.8055,235.2341,49.45593,49.62826
652808.7,233.8221,234.8582,49.45794,49.58303
652826.5,233.8616,234.4635,49.46272,49.53545
652842.3,233.7459,234.2502,49.44872,49.5097
652858,233.4718,234.2361,49.4155,49.508
652874.5,233.0974,234.2697,49.37006,49.51206
652890.6,232.7109,234.4475,49.32307,49.53352
652907.4,232.2179,234.5284,49.26299,49.54327
652923.8,231.6363,234.3911,49.19193,49.52671
652941.8,230.921,234.3354,49.10426,49.51999
652957.3,230.3645,234.2731,49.03583,49.51247
652974.4,229.9152,234.1026,48.98045,49.49186
652991,229.4081,233.9648,48.9178,49.47521
653007.8,229.0261,233.7058,48.87049,49.44386
653023.6,228.6981,233.2558,48.82981,49.38929
653040.4,228.2059,232.4838,48.76862,49.29542
653057.9,227.4058,231.9537,48.66885,49.23074
653073.8,227.376,231.2874,48.66513,49.14921
653091.7,227.5307,230.7759,48.68446,49.08644
653108.1,227.7631,230.3342,48.71346,49.03211
653125.3,227.8473,230.0474,48.72395,48.99676
653140.9,228.0897,229.7052,48.75416,48.95453
653168.1,228.0672,229.6688,48.75136,48.95002
653180.8,228.0202,229.7412,48.74551,48.95897
653193.6,227.913,229.7447,48.73215,48.9594
653209.9,227.8189,229.6902,48.72042,48.95267
653224.1,227.6514,229.5716,48.69953,48.93802
653245.9,227.4783,229.5555,48.67791,48.93602
653258,227.2324,229.4601,48.64717,48.92423
653275.4,227.0755,229.2448,48.62755,48.89759
653295.3,226.864,229.1277,48.60107,48.88309
653307.8,226.5945,229.0406,48.56729,48.87229
653327.4,226.2028,228.9834,48.51809,48.8652
653343.4,225.7983,228.9031,48.4672,48.85524
653357.1,225.3752,228.8119,48.41386,48.84393
653375.9,225.0183,228.6479,48.36877,48.82357
653394.4,224.7572,228.4734,48.33574,48.8019
653410.8,224.6461,228.4005,48.32167,48.79284
653426.4,224.63,228.2322,48.31964,48.7719
653445.3,224.5083,228.0325,48.30421,48.74704
653459.3,224.335,227.782,48.28223,48.71581
653474.8,224.1024,227.4016,48.25272,48.66832
653492,223.7168,227.0718,48.20369,48.62709
653509.1,223.3291,226.8852,48.15431,48.60373
653525.6,223.0131,226.6025,48.11398,48.56829
653542.4,222.685,226.3647,48.07205,48.53843
653557.6,222.2335,226.1203,48.01423,48.50773
653573.1,221.7915,225.6676,47.9575,48.45074
653590.1,221.3118,225.2431,47.8958,48.39719
653607,220.8197,224.8216,47.83235,48.3439
653625.4,220.3399,224.4319,47.77033,48.29452
653643.9,219.8714,224.1927,47.70963,48.26417
653658.3,219.5578,223.9222,47.66892,48.22982
653673.1,219.152,223.6062,47.61615,48.18961
653693.2,218.8587,223.1686,47.57794,48.13383
653707.1,218.5183,222.7782,47.53353,48.08396
653723.8,218.1573,222.3451,47.48634,48.02854
653746.6,217.9874,221.8459,47.46411,47.96449
653762.1,217.7056,221.6908,47.42719,47.94457
653773.6,217.6252,221.3237,47.41665,47.89734
653790.7,217.3924,220.9581,47.38609,47.85021
653810.9,217.4563,220.5584,47.39448,47.7986
653830.2,217.8147,220.2231,47.44148,47.75521
653846.3,217.9836,220.0833,47.46361,47.73711
653865.9,218.2745,219.8248,47.50168,47.70359
653879.2,218.4868,219.8054,47.52942,47.70107
653894.8,218.5504,219.808,47.53772,47.70142
653911.3,218.5621,219.7935,47.53925,47.69954
653924.5,218.6395,219.8325,47.54935,47.70459
653943.2,218.6178,219.7837,47.54652,47.69826
653964.3,218.8277,219.7146,47.5739,47.68929
653978.4,218.9383,219.7353,47.58832,47.69198
653995.7,219.1789,219.7808,47.61966,47.69788
654013.8,219.5562,219.9236,47.66872,47.7164
654028.8,220.1595,220.1526,47.74698,47.74609
654045.9,220.8746,220.3674,47.83944,47.7739
654062.3,221.6639,220.6534,47.94111,47.81087
654078.1,222.7123,221.0566,48.07554,47.86292
654093.7,224.0867,221.572,48.25072,47.92929
654113,225.2673,222.1186,48.40023,47.9995
654129,226.2161,222.5325,48.51976,48.05253
654146.3,226.8125,222.9966,48.59462,48.11187
654168.3,227.1537,223.3373,48.63734,48.15535
654181.6,227.4499,223.4928,48.67437,48.17516
654196.6,227.7468,223.5312,48.71143,48.18005
654211.3,228.0626,223.3648,48.75079,48.15886
654227.6,228.6196,222.9288,48.82006,48.10321
654246.3,228.952,222.8183,48.86131,48.08909
654260.5,229.1942,222.7123,48.89132,48.07554
654277.4,229.4742,222.5755,48.92597,48.05804
654294.3,229.5798,222.3199,48.93903,48.02531
654312.4,229.5362,222.0445,48.93364,47.98999
654328.4,229.3851,221.5343,48.91496,47.92445
654344.4,229.2851,220.9116,48.90257,47.84421
654361.9,229.2178,220.5073,48.89424,47.79199
654377.7,229.1584,220.2186,48.88689,47.75464
654393.6,229.2881,219.8986,48.90294,47.71317
654411.2,229.4076,219.557,48.91774,47.66882
654427.1,229.6588,219.0443,48.94879,47.60213
654444.9,229.6459,218.6924,48.9472,47.55626
654463.4,229.4232,218.4587,48.91966,47.52574
654479.6,229.2559,218.2454,48.89896,47.49787
654494,229.1837,217.9693,48.89002,47.46174
654512.9,229.1018,217.8005,48.87988,47.43962
654528.2,229.1316,217.5934,48.88356,47.41247
654547.2,229.2425,217.4277,48.8973,47.39072
654561.4,229.3938,217.5541,48.91602,47.40731
654578.6,229.6621,217.6602,48.9492,47.42123
654594.4,230.0189,217.8069,48.99324,47.44046
654611.8,230.5321,218.1168,49.05646,47.48105
654628.2,230.9807,218.3378,49.11159,47.50994
654646,231.4756,218.4829,49.17227,47.52891
654662.4,232.3467,218.6123,49.2787,47.5458
654679.7,232.9495,218.8192,49.35209,47.57279
654693.6,233.6464,219.0717,49.43666,47.60569
654712.3,234.3994,219.213,49.52772,47.62409
654727.4,235.3528,219.4115,49.64251,47.64991
654744.8,236.2949,219.7956,49.75542,47.6998
654761.6,237.0192,220.0675,49.84187,47.73507
654779.4,237.6112,220.2747,49.91231,47.76189
654795.4,238.2567,220.4363,49.98887,47.7828
654812.3,238.9327,220.6329,50.06879,47.80823
654828.9,240.1417,220.8616,50.21106,47.83775
654845.6,241.3174,221.0454,50.3486,47.86147
654862.1,242.5771,221.0936,50.4951,47.86768
654878.1,243.9316,221.108,50.65161,47.86955
654894.5,245.1006,221.14,50.78585,47.87366
654912.5,246.1577,221.1132,50.90659,47.87021
654927.7,246.9875,221.2681,51.00092,47.89017
654947.5,247.5923,221.3572,51.06943,47.90165
654960.4,248.2957,221.3761,51.14886,47.90409
654977.9,248.2523,221.4472,51.14397,47.91324
654994.1,248.244,221.7986,51.14304,47.95843
655013.1,248.1611,222.1089,51.13368,47.99826
655027.6,248.111,222.3604,51.12803,48.0305
655044.1,247.9529,222.5851,51.11018,48.05927
655060.9,247.9907,222.6079,51.11446,48.06218
655077.9,248.0803,222.5797,51.12457,48.05858
655093.7,248.295,222.4649,51.14878,48.04388
655114.3,248.3354,222.3577,51.15334,48.03015
655127.7,248.2628,222.2552,51.14516,48.01701
655144.8,248.0526,222.288,51.12144,48.02121
655162.1,247.7828,222.3598,51.09097,48.03042
655183.6,247.5779,222.5089,51.0678,48.04951
655195.4,247.5101,222.7022,51.06013,48.07425
655214.3,247.5154,222.7497,51.06073,48.08032
655231.3,247.5467,222.4211,51.06427,48.03827
655245.3,247.8812,222.3492,51.10209,48.02906
655261.2,248.3487,222.4043,51.15484,48.03613
655278.4,248.8082,222.5623,51.20657,48.05635
655298.8,249.1756,222.7353,51.24784,48.07848
655315,249.5791,222.8549,51.29309,48.09377
655331.6,249.9384,222.8676,51.33331,48.09539
655348.3,250.2713,222.9951,51.3705,48.11168
655365.8,250.6223,223.134,51.40966,48.12942
655379.2,250.9668,223.3578,51.44803,48.15796
655394.4,251.2523,223.7289,51.47977,48.20523
655412.3,251.5374,224.1564,51.51142,48.25956
655428.5,251.7492,224.7127,51.53492,48.3301
655445,252.0734,225.2782,51.57082,48.40162
655462.6,252.3883,225.9787,51.60565,48.48991
655478.8,252.6598,226.8013,51.63563,48.59321
655495.6,252.9306,227.7408,51.66549,48.71068
655512.3,253.1867,228.6853,51.6937,48.82821
655529.2,253.5515,229.5477,51.73382,48.93506
655546.3,253.8772,230.4104,51.76958,49.04148
655563.2,253.9961,231.4266,51.78262,49.16626
655579.6,254.1253,232.6525,51.79678,49.31596
655595.6,254.3168,233.9572,51.81776,49.47429
655612.2,254.5728,235.4007,51.84576,49.64826
655629.3,254.6625,237.0082,51.85557,49.84056
655647.9,254.5865,238.799,51.84726,50.05301
655666,254.4952,240.5463,51.83728,50.25848
655682.9,254.1556,242.3865,51.80011,50.47299
655699.2,253.3733,244.6906,51.71423,50.73885
655718.3,252.3659,247.1922,51.60318,51.02413
655735.4,251.1093,249.7142,51.46387,51.30822
655751.3,249.456,252.6055,51.27929,51.62963
655766.8,247.9498,255.2462,51.10984,51.91927
655782.8,246.1655,257.7564,50.90746,52.19117
655799.6,243.9101,260.1941,50.64913,52.45207
655815.1,241.3967,262.8518,50.35786,52.73304
655832.4,238.7171,265.3335,50.04333,52.99216
655849.1,235.5373,268.1,49.66467,53.27742
655866.6,231.9093,271.2499,49.22531,53.59763
655886,228.4281,274.2026,48.79627,53.89345
655903,224.8706,276.8864,48.35009,54.15875
655917.3,220.6662,279.7686,47.81253,54.43991
655932.9,216.1379,283.307,47.22083,54.7799
655952.9,211.7471,286.6945,46.6342,55.10012
655967.1,206.7584,290.3097,45.95189,55.43629
655985.2,201.8404,293.6821,45.2624,55.7448
656002.4,195.7326,297.6342,44.38217,56.10025
656020.5,190.4182,300.7324,43.59411,56.37439
656033.4,184.2446,304.0281,42.65198,56.66173
656050.6,177.8078,307.113,41.63835,56.92677
656067.2,171.6464,310.0393,40.63725,57.17477
656086,166.3169,312.4532,39.74639,57.37687
656103.8,160.9711,315.012,38.82904,57.58868
656118.5,156.1986,317.2209,37.98959,57.76957
656133.6,151.3082,319.2875,37.10899,57.93719
656149.1,147.0505,321.0649,36.32527,58.08011
656167.6,144.1144,321.9775,35.77546,58.15304
656183.8,142.449,322.4659,35.46018,58.19196
656199.6,140.9466,322.7532,35.17361,58.21481
656216.5,139.9483,322.7707,34.98209,58.2162
656233.9,140.1088,322.3315,35.01294,58.18126
656251.6,140.2583,322.1044,35.04166,58.16316
656267.3,140.8633,321.892,35.15767,58.14622
656283,142.0696,321.7577,35.38801,58.13551
656302,143.2826,321.5431,35.6183,58.11836
656317.6,143.8413,321.3998,35.72393,58.10691
656333.1,144.8826,321.1207,35.92006,58.08457
656349.9,146.0326,320.8063,36.13553,58.05938
656366.3,147.2843,320.4061,36.36873,58.02727
656385.2,148.4137,320.0934,36.57794,58.00213
656399.8,150.4397,319.2749,36.95042,57.93617
656424.5,152.3765,318.5336,37.30315,57.87622
656435.1,154.3162,317.9345,37.6531,57.82763
656448.4,156.5409,316.8529,38.05045,57.73956
656466.7,158.7846,315.963,38.44687,57.66678
656485.5,161.1469,315.1775,38.85958,57.60229
656502.9,163.4499,314.2546,39.2574,57.52624
656518.7,165.7031,313.162,39.64227,57.43579
656533.4,167.9032,312.17,40.014,57.35326
656550.2,170.0888,311.5462,40.37931,57.30119
656569.1,171.9232,311.0439,40.68288,57.25914
656584.1,173.7421,310.5706,40.98119,57.21944
656601.7,175.5819,310.0781,41.2802,57.17803
656616.8,177.5633,309.3997,41.59919,57.12084
656633.2,179.563,308.711,41.91797,57.06261
656654.4,180.83,308.1067,42.11832,57.01136
656669.6,181.7671,307.3328,42.26568,56.94552
656685.5,182.4072,306.7098,42.36594,56.89235
656702.1,182.7402,306.2595,42.41798,56.85382
656721.4,183.1069,305.8246,42.47518,56.81654
656737.3,183.2103,305.4632,42.49129,56.7855
656750.8,183.0172,305.4549,42.4612,56.78478
656767.9,183.0783,305.505,42.47073,56.78908
656787.8,183.0511,305.5315,42.46649,56.79136
656802.2,183.0386,305.3577,42.46454,56.77642
656820.3,183.0272,305.0552,42.46275,56.75039
656836.2,182.5968,304.7553,42.39558,56.72454
656853.3,182.0428,304.6064,42.3089,56.7117
656870.9,181.2118,304.5016,42.17843,56.70265
656886.5,179.9659,304.4807,41.98182,56.70085
656903.3,178.6516,304.5126,41.77308,56.7036
656920.1,176.7114,304.6482,41.46243,56.7153
656938.2,175.245,304.9181,41.22565,56.73857
656953.7,173.4921,305.2286,40.94034,56.76531
656969.4,171.4599,305.7341,40.60648,56.80876
656986.9,169.7087,306.2007,40.31605,56.84878
657001.9,167.8493,306.7776,40.00494,56.89814
657018.5,166.221,307.1561,39.73014,56.93045
657035.4,164.9726,307.354,39.51796,56.94732
657052.3,163.7985,307.7126,39.31721,56.97786
657069.4,162.7846,308.1603,39.14294,57.01591
657089.3,162.2546,308.603,39.05148,57.05346
657105.2,162.1793,309.2642,39.03847,57.1094
657123.5,162.3444,309.6132,39.067,57.13886
657141.6,162.6572,309.8852,39.12098,57.16179
657157.3,162.8344,310.0761,39.15152,57.17787
657170.8,163.2401,310.1079,39.22134,57.18055
657188.5,163.993,309.9355,39.35055,57.16603
657207.6,164.7303,309.8552,39.47662,57.15926
657220.1,165.8811,309.6067,39.67249,57.13831
657237.3,166.8636,309.4941,39.83886,57.12882
657253.4,168.0718,309.2501,40.04232,57.10821
657272.6,170.1105,308.9393,40.3829,57.08194
657288.1,172.2989,308.6005,40.74472,57.05325
657305.4,174.4756,308.1738,41.10073,57.01706
657321.8,177.8521,307.3396,41.64543,56.9461
657343.1,180.7413,306.7199,42.10433,56.89321
