Time Stamp(ms),Intersection,,Angle,
,x,y,x,y
423803.2,308.4796,247.2889,57.043,51.03508
423820.9,307.7022,247.5582,56.97697,51.06557
423838.9,306.9935,247.7304,56.91658,51.08505
423852.5,305.9803,247.8854,56.82989,51.10256
423870,304.8066,247.969,56.72897,51.11201
423891.5,303.8952,248.1363,56.65022,51.13088
423905.3,302.9012,248.2207,56.56396,51.1404
423920.5,301.9234,248.3003,56.47873,51.14938
423941.3,300.9389,248.4123,56.39251,51.16201
423957.9,300.011,248.5065,56.31091,51.17262
423968.3,298.7473,248.7576,56.19919,51.20088
423991.1,297.5819,248.7946,56.09559,51.20504
424008.1,296.4397,248.8877,55.9935,51.2155
424020.2,295.222,248.8477,55.88408,51.21101
424040,294.0958,248.8736,55.78232,51.21392
424056.8,293.0411,248.8713,55.68654,51.21366
424070.8,291.6706,248.823,55.56137,51.20823
424086.4,290.4918,248.9312,55.45307,51.22039
424102.6,289.5122,249.1332,55.36262,51.24308
424118.4,288.7126,249.217,55.28848,51.25249
424135,287.877,249.3353,55.2107,51.26577
424152.4,287.1974,249.261,55.14722,51.25743
424169,286.6649,249.1063,55.09734,51.24007
424185.4,286.1397,248.8929,55.04802,51.21608
424202.2,285.7045,248.4972,55.00706,51.17157
424218.9,285.3928,248.2063,54.97767,51.13877
424235.3,285.2647,247.9664,54.96558,51.11171
424251.7,285.3661,247.6325,54.97515,51.07397
424268.7,285.482,247.322,54.98608,51.03883
424285.4,285.754,246.9491,55.01172,50.99656
424301.7,286.2497,246.3689,55.05836,50.93062
424318.4,286.7468,245.7434,55.10501,50.85934
424336.7,287.5402,244.8185,55.17927,50.75352
424357.3,288.37,243.8858,55.25663,50.64633
424373.6,289.3365,242.622,55.34634,50.5003
424388.7,290.0847,241.4383,55.41553,50.36271
424405.5,290.786,240.1399,55.48016,50.21085
424420.7,291.3524,238.8944,55.5322,50.06427
424436.1,291.4203,237.4717,55.53843,49.89573
424452,291.3182,235.9671,55.52906,49.7162
424468.8,290.6615,234.5399,55.4687,49.54466
424485.7,289.7278,233.2615,55.38256,49.38999
424502.5,288.2832,232.0389,55.24854,49.24115
424518.7,285.9556,230.7928,55.0307,49.08851
424537,283.5275,229.9837,54.8009,48.9889
424552,279.8494,229.3243,54.44774,48.90743
424568.8,275.4752,229.1843,54.01967,48.8901
424591.3,271.4176,229.2487,53.61454,48.89808
424605.1,267.5717,229.3766,53.22324,48.91391
424621,263.2121,229.2586,52.77085,48.8993
424636.1,259.1941,228.9644,52.34541,48.86284
424651.9,254.6489,228.3531,51.85408,48.78694
424669.4,249.9426,227.5534,51.33377,48.68729
424690.1,245.6926,226.7832,50.85353,48.59095
424704,241.7647,226.0462,50.40073,48.49841
424722.9,237.4963,225.2882,49.89865,48.40287
424736,233.5856,224.4917,49.4293,48.3021
424756,229.5175,223.5174,48.93132,48.1783
424771.7,225.2061,222.2024,48.39251,48.01025
424788.3,220.9236,220.877,47.84576,47.83975
424806.3,216.862,219.4633,47.31635,47.65664
424822.1,213.0272,217.9576,46.80655,47.46021
424837.9,209.4998,216.5382,46.32894,47.27367
424853.9,205.9813,214.9876,45.84407,47.06838
424871.7,202.7622,213.1647,45.39294,46.825
424886.7,199.397,211.4393,44.91349,46.59259
424903,196.0048,209.6979,44.42197,46.35598
424920.4,192.8842,207.8171,43.96239,46.09812
424941.2,190.0452,206.0738,43.53801,45.85693
424956.3,187.6486,203.8209,43.17505,45.54211
424971.6,185.7905,201.6728,42.89062,45.23861
424988.8,184.6396,199.2247,42.71314,44.88873
425009.4,183.7202,197.3109,42.57061,44.61222
425023.6,183.3018,195.6341,42.50554,44.36776
425038.1,183.578,194.1348,42.54852,44.14744
425055.4,183.9373,192.6499,42.60432,43.92759
425072.3,185.0985,191.4971,42.78402,43.7558
425088.9,185.9537,190.3777,42.91571,43.58802
425105.6,186.8585,189.5296,43.05442,43.46028
425122.5,187.9268,188.8353,43.21739,43.3553
425138.8,188.7372,188.3901,43.34045,43.28781
425156.6,189.4655,188.412,43.45061,43.29112
425172.6,190.4471,188.7415,43.59845,43.3411
425188.6,191.5686,188.8384,43.76648,43.35578
425205.8,192.8642,188.8614,43.95943,43.35925
425221.8,193.8541,188.7914,44.106,43.34866
425238.4,194.3755,188.7757,44.18292,43.34627
425253.3,194.5266,188.995,44.20517,43.37949
425271.7,194.6892,189.1454,44.2291,43.40224
425288,195.0428,189.0358,44.28106,43.38566
425305.6,195.7027,188.8074,44.37779,43.35109
425321.6,196.5319,188.7085,44.4989,43.33609
425338,197.66,188.6873,44.66285,43.33288
425353.5,199.4965,188.7226,44.92779,43.33823
425371.3,201.3264,188.6546,45.18936,43.32792
425387,203.4439,188.687,45.48908,43.33283
425404.5,205.8334,188.6219,45.8235,43.32297
425421.9,208.0809,188.8781,46.13443,43.36179
425438,210.4966,189.216,46.46476,43.41292
425454.4,212.5303,189.4256,46.73978,43.44458
425471.3,214.0042,189.4336,46.93737,43.44579
425488.1,215.1691,189.3533,47.09249,43.43366
425505.3,216.3836,189.1189,47.25327,43.39824
425521.4,217.6854,188.8751,47.42454,43.36133
425538.8,219.0844,188.6391,47.60735,43.32558
425554.6,220.7664,188.4581,47.82547,43.29812
425571.2,222.7634,188.225,48.08208,43.26273
425588.9,224.3933,188.0395,48.28963,43.23454
425608.8,225.651,187.8244,48.44865,43.20182
425622.1,227.1063,187.5923,48.63141,43.16646
425643.8,228.2082,187.4203,48.76891,43.14023
425659.1,228.8321,187.2036,48.84644,43.10717
425671,229.2443,186.9582,48.89753,43.06967
425688.1,229.5152,186.6271,48.93104,43.01901
425704.9,229.6256,186.172,48.94469,42.94924
425727,229.5816,185.8866,48.93925,42.9054
425739.1,229.6427,185.1547,48.9468,42.7927
425755.3,229.9097,184.4417,48.97977,42.68252
425772.4,230.2418,183.6694,49.02073,42.56271
425788.9,230.6473,182.8444,49.07063,42.43424
425806.2,231.0398,182.0359,49.11885,42.30782
425822.7,231.4814,180.9098,49.17298,42.13089
425842.8,231.9886,179.7191,49.235,41.94273
425856.4,232.4722,178.6331,49.29399,41.77012
425872.3,233.0761,177.338,49.36747,41.56308
425889.4,233.6974,176.2141,49.44284,41.38232
425905.9,234.5273,174.9398,49.54314,41.17616
425923.8,235.4234,173.8394,49.651,40.99708
425943.8,236.3014,172.7737,49.7562,40.8227
425957.7,236.9523,171.8226,49.83391,40.66631
425973.4,237.5172,171.1178,49.90114,40.54993
425990,238.2059,170.5404,49.98285,40.4543
426006.8,239.1368,169.9288,50.09286,40.35269
426023.5,240.0538,169.6649,50.20074,40.30877
426040,240.9175,169.4351,50.30191,40.27045
426057.4,241.751,169.5035,50.39913,40.28186
426078,242.4863,169.4115,50.48457,40.26652
426092.8,243.1241,169.3276,50.55842,40.25253
426108.6,243.5416,169.175,50.60665,40.22704
426123.3,243.9354,168.865,50.65204,40.17524
426139.9,244.4207,168.539,50.70787,40.12066
426156.5,244.8818,168.5068,50.76078,40.11528
426173.6,245.3578,168.5334,50.81528,40.11973
426190.6,245.9339,168.5468,50.88108,40.12198
426207.5,246.5711,168.5297,50.95363,40.11911
426224.9,247.1238,168.301,51.01637,40.08077
426241.4,247.6687,167.9424,51.07807,40.02059
426262.8,248.2282,167.7737,51.14125,39.99223
426277.2,248.7926,167.8174,51.20481,39.99958
426290,249.4723,167.8893,51.28112,40.01167
426306.9,250.2239,168.0891,51.36521,40.04522
426324.8,251.0638,168.1077,51.45882,40.04834
426340.9,252.0742,167.9294,51.57091,40.01839
426356.6,253.5893,167.8874,51.73798,40.01133
426385.6,255.0388,168.0707,51.89666,40.04213
426394.1,255.9475,168.086,51.99556,40.04469
426406.1,257.4989,168.1024,52.16343,40.04745
426424.6,258.8682,168.3015,52.31055,40.08086
426440.3,260.4824,168.3823,52.48272,40.09441
426456.8,262.4391,168.2524,52.68965,40.07263
426478.4,264.3043,168.2394,52.88508,40.07044
426489.8,266.7545,168.0505,53.13916,40.03874
426507.7,268.8024,168.0482,53.34924,40.03836
426524.6,270.6061,168.1936,53.53257,40.06276
426540.8,272.9497,168.2539,53.76843,40.07288
426562,274.2894,168.2135,53.90208,40.0661
426573.7,276.0232,167.9257,54.07378,40.01778
426589.8,277.6359,167.862,54.23223,40.00707
426610.1,279.1605,167.9339,54.38091,40.01916
426624.2,280.9374,168.205,54.55285,40.06468
426646.7,282.501,168.4079,54.70296,40.09871
426658.1,284.056,168.4809,54.85114,40.11094
426673.5,285.8066,168.4411,55.01667,40.10427
426693.9,287.4886,168.4047,55.17445,40.09817
426711.3,289.227,168.305,55.33621,40.08144
426727.4,290.979,168.4924,55.49791,40.11286
426745.3,292.5799,168.6551,55.6445,40.14011
426762.1,294.2622,168.8317,55.79739,40.16967
426779.2,295.9648,168.8471,55.9509,40.17225
426795.1,297.769,168.735,56.11226,40.1535
426814.5,299.5671,168.6198,56.27174,40.1342
426833.8,301.0943,168.7199,56.40615,40.15096
426847.5,302.3323,168.9186,56.51442,40.1842
426860.2,303.6813,169.0019,56.63169,40.19813
426877.5,304.7863,169.1942,56.72721,40.23025
426894,305.5931,169.2954,56.79666,40.24715
426911.7,306.2135,169.4641,56.84988,40.27529
426929.6,306.5927,169.5869,56.88234,40.29576
426946.5,306.9806,169.8294,56.91548,40.33615
426963.1,307.1987,170.0276,56.93409,40.36912
426980.8,307.1427,170.1818,56.92931,40.39476
426996.7,307.0898,170.2839,56.9248,40.41172
427012.5,306.7532,170.2663,56.89606,40.4088
427029,306.5099,170.1323,56.87526,40.38653
427047.2,306.1611,170.1035,56.84539,40.38174
427066.1,305.823,170.14,56.81639,40.38781
427076.2,305.4855,170.1503,56.78741,40.38953
427092.2,305.0529,170.2035,56.75019,40.39837
427109.8,304.7078,170.1771,56.72044,40.39397
427126.4,304.3316,170.2161,56.68797,40.40045
427143,303.8581,170.2827,56.64701,40.41151
427159.9,303.5034,170.3364,56.61626,40.42043
427176.4,303.0988,170.4061,56.58114,40.43202
427194.1,302.8328,170.3409,56.55801,40.42119
427212.3,302.6983,170.244,56.54631,40.40509
427225.7,302.6853,170.1907,56.54517,40.39624
427243,302.808,170.2007,56.55585,40.39791
427260.5,302.8191,170.2356,56.55682,40.40369
427275.8,302.8148,170.3345,56.55645,40.42012
427292.9,302.8478,170.1852,56.55931,40.39532
427313.8,302.8782,170.103,56.56197,40.38167
427325.4,303.088,170.0227,56.5802,40.36832
427342.1,303.4066,170.0666,56.60788,40.37561
427363.1,303.7217,170.5105,56.6352,40.44934
427379.4,304.0092,170.7522,56.66009,40.48941
427393,304.1957,171.059,56.67622,40.5402
427409,304.583,171.3812,56.70967,40.59348
427426,304.8537,171.6742,56.73302,40.64184
427444.6,305.1275,171.7887,56.75661,40.66072
427461.5,305.5862,171.7635,56.79606,40.65656
427478.4,306.1339,171.8782,56.84306,40.67547
427494,306.6157,172.1605,56.8843,40.72195
427512.9,307.0563,172.5103,56.92194,40.77946
427527.9,307.6098,172.8461,56.96911,40.83458
427545.7,308.2385,172.8583,57.02255,40.83657
427561.9,308.6703,172.9662,57.05916,40.85427
427578.6,309.1419,173.4181,57.09907,40.92825
427595.1,309.9956,173.5848,57.17109,40.95549
427609.7,310.7232,173.5292,57.23225,40.94641
427626.2,311.5429,173.6067,57.30091,40.95908
427642.8,312.5605,173.4936,57.3858,40.94059
427659.8,313.4933,173.5452,57.46326,40.94902
427680.8,314.5061,173.9091,57.547,41.00844
427696.8,315.463,174.0436,57.62576,41.03038
427712.6,316.5874,174.3278,57.71788,41.07668
427729.3,317.8543,174.6979,57.82111,41.13688
427746.5,319.0873,174.9919,57.92102,41.18462
427763.3,320.2324,175.2676,58.01331,41.22932
427779.3,321.3069,175.3797,58.09948,41.24747
427794.7,322.4205,175.7708,58.18834,41.31076
427811.8,323.4378,176.0841,58.26914,41.36135
427831.3,324.3224,176.1028,58.33909,41.36438
427845.1,325.0992,176.2435,58.40031,41.38706
427863.8,325.7476,176.4791,58.45123,41.42505
427881.7,326.0497,176.5229,58.4749,41.43209
427897.5,326.3639,176.5337,58.4995,41.43383
427914.9,326.6443,176.4157,58.52141,41.41482
427930,326.917,176.5671,58.5427,41.43921
427943.8,327.5256,176.6191,58.59012,41.44759
427960.2,328.2081,176.6381,58.64315,41.45064
427976.9,328.6954,176.6456,58.68091,41.45184
427992.8,329.3074,176.7638,58.72822,41.47086
428010.1,329.6882,176.9773,58.75758,41.50518
428027.8,330.1275,177.121,58.79141,41.52826
428045.5,330.5567,177.2399,58.82439,41.54734
428063.6,330.8151,177.1283,58.84421,41.52943
428078.9,330.8545,177.124,58.84724,41.52875
428094.6,330.832,177.4196,58.84551,41.57617
428111.7,330.8989,177.5527,58.85064,41.5975
428129,330.8331,177.4303,58.84559,41.57788
428145.7,330.7635,177.1084,58.84025,41.52624
428167.6,330.4698,176.7939,58.81771,41.47569
428182.8,330.338,176.9113,58.80759,41.49457
428197.9,330.3335,177.1376,58.80725,41.53093
428214.7,330.5082,177.3007,58.82066,41.5571
428232.7,330.6205,177.3489,58.82928,41.56483
428251.3,330.5606,177.2088,58.82468,41.54236
428267.2,330.4505,177.3592,58.81623,41.56648
428282.1,330.3544,177.6698,58.80885,41.61625
428298.1,330.321,178.0588,58.80628,41.67849
428314.2,330.1767,178.1912,58.79519,41.69963
428333.3,329.8122,178.0917,58.76714,41.68374
428349.5,329.4607,178.1391,58.74004,41.69131
428364.2,329.1033,178.4102,58.71245,41.73458
428384.4,328.7678,178.6326,58.68651,41.77005
428401.4,328.4847,178.7664,58.66459,41.79136
428415.4,328.2187,179.0661,58.64396,41.83905
428432.2,327.6821,179.4182,58.60229,41.89499
428449.9,327.1989,179.6651,58.56468,41.93417
428466.2,326.4674,180.0085,58.50759,41.98856
428484.9,325.7792,180.3498,58.4537,42.04253
428499.3,325.0482,180.6154,58.39629,42.08447
428515.9,323.8363,181.0825,58.30069,42.15808
428532,322.3485,181.8795,58.18261,42.28331
428549.6,320.7271,182.8782,58.05303,42.43951
428565.7,318.6173,184.1932,57.88301,42.64401
428584.7,316.9,185.3316,57.7434,42.81997
428599,314.8787,186.2755,57.57771,42.96512
428613.7,312.4241,187.4749,57.37444,43.14856
428634.2,310.1888,188.3235,57.18734,43.2777
428649.2,307.5011,189.6518,56.95985,43.47872
428666.2,304.9335,190.7144,56.7399,43.63858
428682.9,301.6891,191.7093,56.45824,43.78749
428698.3,298.9588,192.527,56.21793,43.90933
428714,296.2758,193.4342,55.97882,44.04391
428731.2,294.0493,194.4609,55.7781,44.19549
428746.9,291.7018,195.5188,55.56422,44.35086
428765.9,289.8604,196.2178,55.39481,44.45309
428781,287.6575,196.9826,55.19022,44.56451
428799.7,285.9061,197.7362,55.02604,44.67389
428814.2,284.0544,198.6083,54.85098,44.79996
428831.9,282.3192,199.4943,54.68556,44.92747
428848.8,280.5909,200.374,54.51943,45.05352
428866.4,279.0123,201.0164,54.3665,45.14522
428884,277.6017,201.7781,54.22888,45.25357
428895.9,276.2102,202.5924,54.09222,45.36893
428916.4,275.1537,203.3475,53.98785,45.47551
428933.3,274.2565,204.2092,53.89881,45.59663
428949,273.2955,205.1996,53.80301,45.7352
428966.4,272.3816,205.8293,53.7115,45.82294
428979.2,271.2506,206.6574,53.5977,45.93791
428994.8,269.8348,207.5096,53.45438,46.05574
429012.4,268.2023,208.1418,53.28789,46.14281
429033.6,266.8215,208.509,53.14606,46.19327
429045.3,265.0187,209.175,52.95947,46.28453
429063.8,263.6053,209.8775,52.81205,46.38049
429078.8,262.1063,210.7527,52.65459,46.49954
429095,260.7022,211.5403,52.50607,46.60625
429112.2,259.3156,212.1905,52.35839,46.69403
429129.3,258.1463,212.3046,52.2331,46.7094
429145.6,256.959,212.5526,52.10515,46.74277
429163.9,255.8487,212.7074,51.98483,46.7636
429180,254.5574,212.7221,51.84408,46.76558
429195.9,253.2877,212.7067,51.70481,46.7635
429212.4,251.9222,212.6706,51.55408,46.75865
429229.8,250.247,212.5446,51.36779,46.7417
429246.9,248.4227,212.3205,51.16318,46.71154
429262.8,246.2303,211.8621,50.91485,46.64973
429280.9,244.3937,211.5575,50.70476,46.60857
429297,242.6605,211.296,50.50476,46.5732
429312.5,240.7799,211.1646,50.28582,46.55541
429330.2,239.2169,211.0325,50.10231,46.53751
429347.6,236.9352,211.21,49.83187,46.56155
429374.6,235.3749,211.5235,49.64516,46.60398
429387.7,234.0983,211.7536,49.49134,46.63508
429399.4,232.1934,211.8409,49.26,46.64686
429417.8,230.0275,211.813,48.9943,46.6431
429434.5,228.103,211.6926,48.75581,46.62683
429449,226.1298,211.0092,48.50892,46.53435
429466.1,224.4542,210.3425,48.29736,46.44381
429483.8,223.4118,209.9973,48.16485,46.39681
429502.7,222.5661,209.7692,48.05684,46.36572
429518.3,222.1592,209.6558,48.00471,46.35024
429533,221.7005,209.4492,47.94582,46.32203
429548.8,221.3664,209.3937,47.90283,46.31444
429565.8,220.8854,209.3963,47.84083,46.3148
429582,220.1995,209.0278,47.75216,46.26439
429599.1,219.6631,208.6665,47.6826,46.21488
429614.9,219.1042,207.9951,47.60993,46.12263
429632.3,218.6819,207.5268,47.55488,46.0581
429649.1,218.3454,207.1967,47.51094,46.01253
429668.5,218.2629,207.0863,47.50016,45.99727
429682.8,218.2702,207.014,47.50111,45.98727
429700.1,218.4176,206.7756,47.52037,45.95427
429714.9,218.5366,206.2911,47.53592,45.88711
429730.5,218.5697,206.0153,47.54025,45.8488
429746.8,218.7708,205.5843,47.56648,45.78883
429765.8,218.9043,205.3163,47.58389,45.75147
429782.7,219.3383,204.9349,47.6404,45.69822
429800.1,219.6504,204.6764,47.68096,45.66208
429816.5,219.8588,204.5914,47.708,45.65018
429833,220.2254,204.6152,47.75552,45.65351
429848.2,220.4194,204.5615,47.78062,45.64599
429867.8,220.6429,204.446,47.80951,45.62981
429883.4,220.8241,204.1076,47.83291,45.58237
429901.4,220.832,203.8152,47.83393,45.54131
429916.5,220.7816,203.4385,47.82743,45.48832
429933.3,220.6615,203.1499,47.81192,45.44765
429950.8,220.718,203.0417,47.81921,45.4324
429967.3,220.9837,202.6399,47.85351,45.37566
429983.4,220.7822,202.3589,47.82751,45.3359
430004.1,220.857,201.8658,47.83717,45.26601
430020.6,220.7839,201.6887,47.82773,45.24086
430033.9,220.7855,201.656,47.82794,45.23623
430050.9,220.7585,201.5322,47.82445,45.21863
430068.9,220.5737,201.4234,47.80058,45.20316
430086.5,220.4249,201.3361,47.78133,45.19074
430104.9,220.2444,201.1594,47.75797,45.1656
430121.5,219.8764,200.9713,47.71028,45.13879
430137.6,219.4788,201.0182,47.65866,45.14548
430153.6,219.2804,201.0175,47.63287,45.14537
430171,219.2219,201.0002,47.62525,45.14291
430186.5,219.1812,200.9329,47.61995,45.13331
430204.3,219.0886,200.9794,47.60789,45.13995
430219.2,218.8565,200.893,47.57766,45.12762
430235.1,218.343,201.0233,47.51063,45.1462
430252.3,217.8852,201.0439,47.45072,45.14913
430267.8,217.3276,201.094,47.37758,45.15628
430283.8,216.7383,200.9685,47.30005,45.13839
430300.9,216.271,200.7048,47.23841,45.10078
430316.5,216.0943,200.4709,47.21507,45.06738
430333.6,215.9246,200.6914,47.19263,45.09886
430349.9,215.7071,200.9038,47.16384,45.12916
430366.7,215.4751,201.2757,47.13309,45.18214
430383.4,215.2009,201.7417,47.09671,45.24839
430400.3,214.9191,202.313,47.05928,45.3294
430416.9,214.7983,202.8427,47.04322,45.40431
430432.8,214.676,203.3061,47.02694,45.46967
430449.6,214.5363,203.7848,47.00833,45.53704
430466.1,214.5309,204.3916,47.00761,45.6222
430484.6,214.5462,204.9162,47.00965,45.69561
430501.2,214.4137,205.7149,46.992,45.80701
430516.1,214.1858,206.6859,46.9616,45.94186
430532.3,213.813,207.974,46.91181,46.11972
430548.8,213.4091,209.1501,46.85777,46.28114
430566.4,212.9653,210.4696,46.79824,46.4611
430583.3,212.6418,211.772,46.75478,46.63756
430600,212.4655,213.0381,46.73106,46.80802
430616.9,212.5716,214.1956,46.74533,46.96291
430631.9,212.8509,215.5375,46.78288,47.14137
430649.6,213.0217,216.9159,46.80581,47.32344
430665.6,213.3127,218.5063,46.84485,47.53196
430682.6,213.9775,220.2962,46.9338,47.76468
430700.9,214.7209,222.0519,47.03291,47.99094
430715.9,215.4521,223.902,47.13004,48.22724
430732.1,216.2365,226.1203,47.23386,48.50773
430749.3,216.6848,228.3726,47.293,48.78936
430766.1,216.8825,230.8759,47.31904,49.09872
430784.2,216.9348,232.8274,47.32592,49.33724
430799.8,216.7426,234.5926,47.30062,49.55102
430816.7,216.4423,236.146,47.26102,49.73761
430833.4,215.8991,237.6485,47.18925,49.91674
430849.8,215.1036,239.1763,47.08379,50.09752
430867.1,214.3155,240.8297,46.97891,50.29165
430888.2,213.6267,242.3203,46.88689,50.46531
430902.9,212.9686,243.8818,46.79869,50.64587
430920.7,212.3617,245.4652,46.71709,50.82756
430932.8,211.8168,247.315,46.64361,51.03804
430949.9,211.4312,249.0745,46.5915,51.23649
430966.1,211.2111,250.6837,46.5617,51.4165
430984.5,211.0809,251.9473,46.54406,51.55686
431000.3,210.9205,253.2839,46.52232,51.7044
431016.7,210.5931,254.7259,46.47787,51.8625
431032.8,209.836,256.1895,46.37483,52.02184
431050.8,209.0738,257.6131,46.27068,52.17573
431067.3,208.1115,259.0706,46.13865,52.3322
431084,207.0747,260.669,45.99566,52.50254
431104.7,206.0114,262.1837,45.84826,52.66274
431118.3,204.9538,263.6767,45.70086,52.81952
431133.9,204.0862,264.9057,45.57937,52.94772
431150,203.2286,266.1136,45.45875,53.07299
431167.1,202.4935,267.1117,45.35495,53.17595
431184.9,201.756,268.0587,45.25043,53.27318
431200.5,201.197,269.0131,45.17094,53.37074
431217.6,200.7805,269.8495,45.11159,53.45586
431233.4,200.5336,270.6928,45.07632,53.54135
431250.1,200.5261,271.1802,45.07526,53.59059
431268.3,200.5289,271.6665,45.07566,53.63962
431285.4,200.8393,272.1534,45.11997,53.68859
431301.3,201.2171,272.6607,45.17381,53.73949
