Time Stamp(ms),Intersection,,Angle,
,x,y,x,y
300587.4,315.4667,236.9786,57.62606,49.83704
300607.1,315.3578,236.7589,57.61712,49.81084
300621.6,315.2036,236.54,57.60444,49.78472
300639.3,315.0043,236.356,57.58805,49.76273
300656.2,314.7699,236.1544,57.56874,49.73862
300672.7,314.551,235.8042,57.5507,49.69668
300689.2,314.2562,235.6392,57.52637,49.6769
300705.9,313.9997,235.4915,57.50517,49.65917
300721.3,313.7072,235.4399,57.48097,49.65298
300739.2,313.5087,235.3223,57.46453,49.63885
300753.8,313.3348,235.252,57.45012,49.6304
300772.2,313.2395,235.1688,57.44221,49.6204
300788.3,313.1606,235.0967,57.43566,49.61173
300808.3,312.9862,235.072,57.42118,49.60876
300822.4,312.8619,234.9866,57.41086,49.59848
300839.9,312.7639,234.9166,57.40272,49.59005
300855.4,312.5637,234.9125,57.38606,49.58956
300877.7,312.7263,234.9402,57.39959,49.5929
300889.3,312.669,235.0184,57.39482,49.60231
300909.6,312.678,234.9562,57.39557,49.59483
300921.9,312.7122,234.8538,57.39841,49.5825
300940.8,312.7414,234.8051,57.40084,49.57663
300957.8,312.7472,234.7242,57.40132,49.56688
300973.2,312.8565,234.7599,57.41041,49.57119
300990.8,312.9649,234.6102,57.41942,49.55314
301005.6,313.0634,234.3711,57.42759,49.5243
301024,313.1431,234.1905,57.43422,49.50249
301040.8,313.2832,233.8602,57.44584,49.46255
301055.4,313.4387,233.6028,57.45873,49.43137
301073.6,313.581,233.4448,57.47052,49.41223
301095.7,313.6789,233.366,57.47863,49.40268
301108.7,313.7788,233.3541,57.4869,49.40122
301125.5,313.8834,233.2771,57.49556,49.39188
301147.7,313.9628,233.3006,57.50212,49.39473
301157.7,314.0272,233.3251,57.50745,49.39771
301172.8,314.0218,233.2383,57.507,49.38718
301191.7,313.9725,233.2393,57.50293,49.38729
301208.4,313.8484,233.2858,57.49266,49.39293
301225.6,313.6333,233.4545,57.47486,49.4134
301242.7,313.4902,233.5999,57.463,49.43103
301259.3,313.3562,233.9591,57.4519,49.47452
301274.5,313.248,234.316,57.44292,49.51765
301292.7,313.1369,234.5749,57.4337,49.54889
301309,312.9722,234.9091,57.42002,49.58916
301326,312.7388,235.329,57.40062,49.63965
301343.5,312.4895,235.697,57.37989,49.68383
301359.2,312.2277,236.1942,57.35807,49.74338
301374.8,312.0157,236.7187,57.34039,49.80605
301392.6,311.7624,237.4082,57.31925,49.88818
301411.9,311.4625,237.7597,57.29419,49.92994
301424.3,311.0872,238.3298,57.26277,49.99753
301440.9,310.5087,238.9393,57.21424,50.06957
301457.8,309.9158,239.608,57.16437,50.14836
301475.7,309.2923,240.2465,57.11178,50.22335
301491.8,308.4797,241.0182,57.04301,50.31367
301511.8,307.6889,241.6102,56.97585,50.38273
301525.2,306.6369,242.325,56.88612,50.46585
301543.1,305.5767,242.9895,56.79525,50.54286
301560.4,304.3768,243.5202,56.69188,50.60418
301575.9,303.067,244.1586,56.57838,50.67773
301592,301.8369,244.4319,56.47116,50.70915
301610.1,300.8322,244.9886,56.38314,50.77302
301626.6,299.8119,245.4955,56.29334,50.83102
301644.2,298.7777,246.0307,56.20189,50.89211
301660,297.33,246.528,56.07312,50.94873
301677.9,296.2006,246.96,55.97207,50.9978
301693.7,295.1467,247.3896,55.87729,51.0465
301715.8,293.9332,247.8872,55.76758,51.10277
301727.5,292.6953,248.1973,55.65503,51.13776
301743.1,291.0956,248.551,55.50862,51.17762
301759.5,289.4483,248.6789,55.3567,51.19202
301774.7,287.8697,249.0684,55.21002,51.23581
301792.8,286.4114,249.3217,55.07355,51.26423
301809.6,285.1422,249.5453,54.95401,51.2893
301826.9,283.867,249.8867,54.83318,51.32752
301843,282.4787,250.0924,54.70082,51.35052
301858.1,281.1916,250.2125,54.57732,51.36393
301874.8,279.7257,250.3502,54.43576,51.37931
301892.9,278.2333,250.4297,54.29062,51.38818
301909.3,276.7229,250.5967,54.14268,51.4068
301927.9,275.4338,250.4506,54.01557,51.39051
301942.7,274.1662,250.2766,53.88982,51.37109
301959.6,273.0098,250.2645,53.77445,51.36974
301975.8,271.6902,250.3423,53.642,51.37843
301994.2,270.4713,250.2228,53.51892,51.36509
302011.7,269.3988,250.2962,53.41004,51.37328
302026.6,268.5958,250.0932,53.32814,51.35061
302043,267.8743,250.2161,53.25429,51.36434
302060,267.2948,250.2355,53.19479,51.36651
302075.3,266.6398,250.3534,53.12733,51.37966
302092.9,266.027,250.5394,53.06403,51.40041
302107.2,265.2907,250.6792,52.98773,51.416
302125.1,264.6264,250.7881,52.91866,51.42813
302141,263.7297,250.812,52.82505,51.43079
302158.3,262.9102,250.8712,52.73917,51.43739
302174.2,262.1383,250.9222,52.65796,51.44306
302191.6,261.0949,251.1007,52.5477,51.46292
302207.8,259.7074,251.1793,52.40022,51.47165
302227.9,258.2151,251.3348,52.2405,51.48893
302242.1,256.3051,251.453,52.03437,51.50206
302258.9,254.5662,251.6996,51.84505,51.52942
302274.3,252.5841,251.8459,51.62727,51.54564
302291.3,250.4416,252.1492,51.3895,51.57921
302307.8,248.2205,252.567,51.14038,51.62538
302325.8,246.2553,252.8513,50.91769,51.65676
302341.2,243.9632,253.1204,50.65524,51.6864
302358.2,241.6853,253.3296,50.39148,51.70943
302374.4,239.1602,253.4946,50.09562,51.72757
302392,236.911,253.7107,49.82899,51.75131
302408.4,234.6965,253.8446,49.56354,51.766
302425,232.6695,254.0487,49.31803,51.78839
302442.7,230.9375,254.1876,49.10629,51.80361
302458.7,229.2387,254.3435,48.89683,51.82068
302474.5,227.5247,254.6006,48.68371,51.84881
302491.5,225.8117,254.9249,48.46889,51.88423
302508.7,224.1794,255.247,48.26248,51.91936
302526.6,222.6955,255.4378,48.07339,51.94014
302543.3,221.3028,255.617,47.89465,51.95964
302560,220.3583,255.7214,47.77272,51.971
302575.1,219.1473,255.9688,47.61554,51.99788
302592.5,218.1089,256.2811,47.48001,52.03177
302608.9,217.1245,256.5839,47.35089,52.06458
302626.1,216.1846,256.9496,47.227,52.10414
302643.3,215.4745,257.1811,47.13302,52.12914
302659.1,214.8907,257.5244,47.0555,52.16618
302674.7,214.4159,257.8857,46.99229,52.20509
302692.9,213.8298,258.2926,46.91406,52.24883
302709.8,213.3246,258.5648,46.84644,52.27803
302726.3,212.7834,258.9866,46.77382,52.32322
302747.1,212.2754,259.4024,46.70547,52.36768
302765.7,211.7652,259.9939,46.63665,52.43076
302783,211.2251,260.4746,46.56361,52.48189
302796.7,210.5857,260.9841,46.47688,52.53596
302811.2,209.836,261.4974,46.37482,52.5903
302831,209.0288,261.8907,46.26452,52.63184
302850.2,208.3238,262.28,46.16783,52.67289
302861.7,207.4726,262.6229,46.05062,52.70898
302878.3,206.7078,262.8863,45.94489,52.73666
302896.2,205.9182,263.0547,45.8353,52.75433
302913.1,205.3636,263.1999,45.75806,52.76957
302930.3,204.9838,263.4478,45.70506,52.79556
302946.6,205.1827,263.6535,45.73283,52.81709
302963.9,205.4323,263.7533,45.76765,52.82753
302980.6,206.1161,263.8831,45.8628,52.8411
302998.3,206.6795,264.0355,45.94097,52.85702
303012.5,207.3585,263.9573,46.03488,52.84885
303029.3,208.2622,263.883,46.15936,52.84109
303048.2,208.953,263.8292,46.25414,52.83546
303063,209.609,263.9585,46.34385,52.84898
303078.3,210.1874,264.0063,46.4227,52.85398
303094,210.5584,264.1543,46.47316,52.86942
303111.4,210.7944,264.3205,46.50521,52.88677
303127.6,211.0497,264.3893,46.53983,52.89394
303146.2,211.1666,264.6393,46.55567,52.91999
303162.2,211.3277,264.655,46.57749,52.92163
303180.1,211.7035,264.6694,46.62831,52.92313
303199.6,212.0603,264.8122,46.67647,52.93799
303215.3,212.5432,264.879,46.74152,52.94495
303230.6,213.2355,264.8428,46.8345,52.94117
303250.8,213.8741,265.118,46.91998,52.96979
303264.3,214.5211,265.438,47.00631,53.00302
303278.9,215.2501,265.6559,47.10325,53.02561
303295.4,215.8852,265.9792,47.18741,53.05909
303314.3,216.5529,266.1067,47.27561,53.07227
303332.3,217.2656,266.2203,47.36943,53.08401
303348.5,217.9351,266.3383,47.45726,53.09621
303363.7,218.5489,266.4626,47.53753,53.10905
303380.6,219.0998,266.824,47.60936,53.14632
303398.9,219.7311,266.9568,47.69143,53.16
303413.6,220.6869,267.1925,47.8152,53.18427
303432.8,221.7209,267.4774,47.94843,53.21355
303449.8,222.6306,267.6388,48.06509,53.23013
303463.8,223.58,267.9321,48.18628,53.26021
303482.4,224.2729,268.1405,48.27436,53.28156
303499,224.8821,268.6004,48.35155,53.32861
303514.6,225.3377,268.978,48.40913,53.36716
303531.5,225.8731,269.4806,48.47662,53.41836
303547.5,226.5093,269.8454,48.5566,53.45544
303562.8,227.2523,270.203,48.64967,53.49174
303580,228.0941,270.4175,48.75471,53.51348
303597,229.089,270.5812,48.87829,53.53006
303612.8,230.1572,270.8636,49.01029,53.55861
303630.1,231.2217,271.1329,49.14116,53.58582
303646.9,232.5464,271.447,49.30304,53.61751
303664.4,233.7377,271.5408,49.44772,53.62696
303679.8,234.7982,271.5739,49.57579,53.63029
303696.4,235.8775,271.7594,49.70547,53.64897
303712.8,236.9994,271.8425,49.83952,53.65733
303731,238.0532,271.8612,49.96476,53.65922
303748.4,239.084,271.6529,50.08664,53.63825
303765,240.0997,271.4856,50.20613,53.6214
303781.4,241.0068,271.4003,50.31234,53.61279
303801.5,241.8844,271.3253,50.41465,53.60523
303815.9,242.7533,271.429,50.51551,53.6157
303830.6,243.7244,271.3298,50.62773,53.60569
303848.6,244.6878,271.332,50.73854,53.60591
303865.5,245.5802,271.3727,50.84071,53.61002
303884.3,246.5557,271.2838,50.95187,53.60105
303899.2,247.4083,271.2241,51.04861,53.59502
303914.8,248.4699,271.0572,51.1685,53.57818
303933,249.7341,270.951,51.31044,53.56746
303957,251.1599,270.8816,51.4695,53.56044
303970,252.3718,270.8874,51.60382,53.56102
303985.4,254.0046,270.8011,51.78355,53.5523
304002.8,255.5283,270.7747,51.94999,53.54963
304019,256.7708,270.6631,52.0848,53.53835
304032.5,258.2731,270.3555,52.24672,53.5072
304048.9,259.491,270.0335,52.37713,53.47455
304066.7,260.6098,269.7357,52.49625,53.44431
304082.2,261.9058,269.612,52.63343,53.43173
304099.7,263.1042,269.5717,52.75954,53.42763
304115.2,264.4603,269.4138,52.90134,53.41156
304132.9,265.6403,269.269,53.02399,53.39682
304150.9,266.7267,269.2042,53.1363,53.39021
304168.5,267.701,269.2288,53.23652,53.39272
304185.3,268.6311,269.4093,53.33175,53.41111
304200.8,269.4828,269.7015,53.41859,53.44082
304215.8,270.3561,269.8161,53.50726,53.45247
304233.5,271.1918,269.9015,53.59177,53.46115
304250.7,272.2611,269.8851,53.69941,53.45948
304269.8,273.5261,269.7601,53.82604,53.44678
304286.7,274.7217,269.8203,53.94503,53.45289
304301.3,276.0317,269.8827,54.07462,53.45924
304319.9,277.4547,269.8662,54.21449,53.45757
304334.8,279.3209,269.8206,54.39649,53.45293
304353.7,281.1028,269.8143,54.56878,53.45229
304371,282.8288,269.7097,54.73428,53.44167
304385,284.6648,269.66,54.90886,53.43661
304404.5,286.4482,269.4804,55.077,53.41834
304418.2,288.2403,269.395,55.24455,53.40965
304434.7,289.9089,269.351,55.3993,53.40517
304452.7,291.5723,269.2043,55.55236,53.39022
304468.8,292.9632,269.1445,55.67944,53.38414
304483.6,294.5982,269.0752,55.82778,53.37707
304502,295.8225,268.9774,55.93812,53.36709
304517.1,296.8683,269.0557,56.03188,53.37508
304532.5,298.235,269.029,56.15372,53.37236
304552.3,299.3028,268.9269,56.24838,53.36195
304570.2,300.5009,268.8414,56.35403,53.35322
304587.3,301.6001,268.8365,56.45046,53.35272
304604.5,302.8065,268.7925,56.55572,53.34824
304619,303.9718,268.8145,56.65685,53.35048
304633.6,305.4974,268.6643,56.78844,53.33514
304651.9,306.8553,268.7112,56.90478,53.33993
304670.6,308.0488,268.5894,57.00644,53.32748
304687.9,309.3589,268.4131,57.1174,53.30946
304700.9,310.6306,268.1871,57.22448,53.28633
304718.7,311.916,267.9612,57.33207,53.2632
304734,313.1905,267.72,57.43815,53.23846
304751.3,314.5311,267.4001,57.54906,53.2056
304769,315.6758,267.2589,57.64323,53.19109
304785.6,316.7745,266.971,57.73316,53.16146
304803.2,317.8008,266.6648,57.81677,53.12991
304819.1,318.8382,266.4641,57.90088,53.1092
304834.6,319.7641,266.3523,57.97562,53.09765
304850.9,320.7875,265.9921,58.05788,53.06042
304867.8,321.6785,265.6895,58.12918,53.02908
304886.2,322.3657,265.6068,58.18398,53.02051
304902.8,323.0499,265.3633,58.23838,52.99526
304918.7,323.6958,265.1954,58.28957,52.97783
304935,324.4824,265.1719,58.35172,52.97539
304953.3,325.3079,265.4545,58.41671,53.00473
304967.9,326.2433,265.7104,58.49006,53.03126
304985.2,327.0145,265.9774,58.55031,53.0589
305000.9,327.9859,266.7198,58.6259,53.13558
305017.9,328.7284,267.3535,58.68346,53.20082
305033.8,329.6862,268.0331,58.75743,53.27056
305054.2,330.1418,268.6738,58.79251,53.33611
305068.2,330.7224,269.4225,58.8371,53.41245
305084.6,331.2746,269.8098,58.87941,53.45183
305101.5,331.7416,270.1761,58.91512,53.48901
305118.9,332.0554,270.2859,58.93906,53.50014
305135.1,332.2763,270.5094,58.9559,53.52279
305151.5,332.4964,270.7962,58.97266,53.55181
305171.3,332.6222,271.1465,58.98223,53.5872
305184.4,332.7383,271.4714,58.99106,53.61996
305201.5,332.8701,271.8321,59.00108,53.65629
305222.6,333.0035,272.4641,59.01122,53.71978
305233.8,333.1948,273.054,59.02574,53.77887
305250.1,333.4382,273.7999,59.04419,53.85334
305267.4,333.7693,274.2106,59.06927,53.89425
305286.5,334.1826,274.6527,59.10052,53.93818
305304,334.5411,274.9151,59.12759,53.96421
305317.3,334.8838,275.0301,59.15342,53.97561
305333.2,335.1839,275.3609,59.17601,54.00836
305350.4,335.6163,275.6744,59.2085,54.03936
305367.4,336.0388,275.848,59.24019,54.0565
305387,336.5137,275.5095,59.27574,54.02306
305403.4,337.0499,275.2402,59.31578,53.99642
305421.1,337.6759,274.8019,59.36243,53.95298
305436.5,338.4909,274.7334,59.42295,53.94619
305451.4,339.487,274.6812,59.49664,53.94101
305469.2,340.609,274.6043,59.57924,53.93338
305486.6,341.5564,274.3849,59.64869,53.91157
305502.2,342.6298,274.2342,59.72702,53.8966
305519.4,343.6808,274.2363,59.80336,53.8968
305534.4,344.9319,274.02,59.89378,53.87527
305551.9,346.1986,273.8553,59.98484,53.85887
305568.7,347.6884,273.8493,60.0913,53.85827
305585,349.1352,273.8527,60.19402,53.85861
305602,350.7945,273.8415,60.31105,53.85749
305620.3,352.3976,273.9431,60.42332,53.86761
305636.8,353.853,273.8904,60.52458,53.86237
305652.4,355.6512,273.6076,60.64883,53.83418
305669.6,357.3123,273.5347,60.76276,53.8269
305686.9,359.0034,273.5041,60.87791,53.82384
305703.8,360.6731,273.5947,60.99081,53.83289
305720.3,362.2827,273.7283,61.09888,53.84621
305735.6,363.5491,273.6532,61.1834,53.83872
305751.6,364.6969,273.3979,61.25961,53.81324
305768.5,365.8966,273.3461,61.33887,53.80806
305785.9,366.8281,273.2,61.40014,53.79347
305802.7,367.7438,273.1276,61.46014,53.78623
305819.2,368.8269,272.8524,61.5308,53.75869
305835.8,369.7553,272.4925,61.59112,53.72263
305853.6,370.6269,272.1864,61.64754,53.69191
305870.3,371.3141,271.8319,61.69187,53.65627
305885,371.9533,271.4428,61.733,53.61709
305905.4,372.3799,271.0583,61.76038,53.57829
305921.3,372.9004,270.6723,61.79373,53.53927
305939.4,373.4184,270.2424,61.82684,53.49574
305955.4,373.9298,269.9445,61.85947,53.46551
305973.2,374.4455,269.8076,61.89229,53.45161
305989.6,374.8753,269.7569,61.9196,53.44646
306005.5,375.3176,269.4121,61.94765,53.41139
306022.6,375.6952,269.1919,61.97155,53.38897
306038,375.9265,268.9194,61.98618,53.36118
306053.6,376.114,268.7999,61.99802,53.34898
306073.3,376.3761,268.669,62.01456,53.33562
306087.5,376.7318,268.5674,62.03699,53.32524
306105.5,377.1406,268.3973,62.06272,53.30785
306124.3,377.5334,268.2528,62.08739,53.29307
306139.8,378.074,268.0458,62.12129,53.27187
306157,378.5801,267.8677,62.15296,53.25361
306176.2,379.2746,267.6491,62.19631,53.23118
306191.2,379.9151,267.6055,62.23618,53.22671
306206.1,380.5082,267.6036,62.27301,53.22652
306223,381.2248,267.3667,62.31738,53.20218
306238.7,381.8923,267.1268,62.3586,53.17751
306255.4,382.658,266.7653,62.40574,53.14027
306275.1,383.2559,266.7304,62.44244,53.13667
306291.8,383.5349,266.7365,62.45954,53.13731
306310.4,383.8816,266.7654,62.48076,53.14029
306325.5,384.0771,266.8531,62.49271,53.14932
306340.1,384.2182,266.8188,62.50133,53.14579
306354.7,384.2729,266.8771,62.50467,53.15179
306370.7,384.4883,266.7096,62.51782,53.13453
306388.7,384.8871,266.6018,62.54213,53.12341
306405.1,385.8342,266.3827,62.5997,53.1008
306423.6,386.4646,266.2332,62.6379,53.08535
306438.9,387.1131,266.2209,62.67709,53.08408
306454.8,387.8027,266.1604,62.71866,53.07783
306471.8,388.4153,266.0871,62.75548,53.07024
306487.1,389.1168,265.7498,62.79754,53.03534
306503.7,389.7677,265.3718,62.83646,52.99614
306521.4,390.434,265.1642,62.87618,52.97459
306538.4,391.1113,265.0336,62.91646,52.96102
306554.5,391.7128,264.9803,62.95214,52.95547
306570.8,392.3926,264.9116,62.99236,52.94833
306591.3,392.883,264.8417,63.02129,52.94107
306604.5,393.3533,264.8564,63.049,52.9426
306621.5,393.7895,264.7495,63.07464,52.93147
306637.6,394.3105,264.6951,63.10521,52.9258
306653.5,394.9023,264.6549,63.13987,52.92162
306670.7,395.5218,264.5795,63.17605,52.91377
306686.8,396.0698,264.4231,63.20798,52.89746
306703.9,396.6035,264.3369,63.23901,52.88848
306721.7,397.1098,264.3667,63.26839,52.89159
306737.3,397.576,264.2968,63.29539,52.8843
306753.5,398.1408,264.2662,63.32803,52.8811
306772.1,398.6312,264.267,63.35631,52.88118
306788.2,399.3693,264.347,63.39877,52.88953
306807,400.1089,264.3871,63.44118,52.89371
306824.8,400.9058,264.3937,63.48675,52.8944
306839.9,401.8288,264.4684,63.53935,52.90218
306853.8,402.7623,264.6403,63.59235,52.92009
306870.6,403.6985,264.8245,63.6453,52.93927
306889,404.5334,264.9835,63.69236,52.95581
306905.5,405.3063,265.0848,63.73578,52.96634
306920.9,406.28,265.273,63.7903,52.98589
306937.9,407.2483,265.6149,63.84431,53.02136
306953.9,408.3904,266.179,63.90774,53.07975
306972.8,409.3597,266.6594,63.96135,53.12935
306989,410.1916,267.0782,64.0072,53.1725
307004.9,411.0865,267.3472,64.05635,53.20017
307022.1,411.8457,267.7253,64.09792,53.239
307038.7,412.5571,268.1761,64.13676,53.28521
307054.8,413.1822,268.6513,64.17079,53.33382
307071.8,413.7892,269.0977,64.20377,53.37937
307088.9,414.4049,269.4432,64.23713,53.41455
307105.9,415.0988,269.5495,64.27463,53.42537
307121.9,415.857,269.5572,64.31549,53.42615
307138.3,416.7822,269.4393,64.36519,53.41416
307154.8,417.9269,269.4478,64.42644,53.41503
307172,419.1226,269.539,64.49011,53.4243
307188.6,420.1925,269.7804,64.54684,53.44884
307207.2,421.3067,270.0382,64.60567,53.47503
307222.3,422.5649,270.2335,64.6718,53.49483
307240.6,423.741,270.4409,64.73332,53.51585
307258.3,424.6411,270.4904,64.78022,53.52086
307273.3,425.6848,270.5806,64.8344,53.52999
307290.7,426.5233,270.7657,64.87776,53.54871
307307.7,426.9979,270.7397,64.90225,53.54609
307324.1,427.0641,270.8147,64.90565,53.55368
307342.4,427.1104,270.804,64.90804,53.5526
307358,426.9759,270.688,64.90112,53.54087
307373.4,426.6609,270.362,64.88486,53.50785
307391.4,426.2964,270.1032,64.86604,53.48162
307408.6,425.9783,269.9573,64.84959,53.46681
307426.5,425.5512,269.8075,64.82748,53.4516
307441.7,425.09,269.7069,64.80355,53.44137
307457.8,424.6903,269.4958,64.78278,53.41991
307474.2,424.2201,269.14,64.75831,53.38367
307491.9,423.7428,268.7437,64.73342,53.34325
307509.7,423.3275,268.5101,64.71173,53.31938
307526.3,422.9171,268.2985,64.69025,53.29774
307540.7,422.3698,268.3051,64.66157,53.29841
307559.6,421.8467,268.36,64.63409,53.30403
307575.6,421.1548,268.1701,64.59766,53.2846
307593.3,420.5241,267.9984,64.56438,53.26701
307607.3,419.675,267.7569,64.51943,53.24225
307626.5,418.8319,267.4597,64.47466,53.21173
307641,417.9568,267.2799,64.42803,53.19325
307657.9,416.8872,267.0547,64.37082,53.17008
307672.8,415.5915,266.9164,64.30119,53.15585
307691.4,414.1402,266.77,64.22279,53.14075
307708.3,412.3313,266.5589,64.12444,53.11899
307724.2,410.5643,266.3309,64.02769,53.09545
307743.3,408.9354,266.0308,63.9379,53.06442
307759,407.0631,265.795,63.83399,53.04002
307774.6,405.2193,265.6599,63.7309,53.02602
307792.9,403.196,265.577,63.6169,53.01743
307810.2,401.1938,265.5586,63.50319,53.01552
307826.9,399.1461,265.4693,63.38594,53.00626
307844.2,396.4958,265.3272,63.23276,52.99152
307868,394.8646,265.1717,63.13766,52.97537
307882.9,393.2153,264.954,63.04087,52.95274
307893.3,391.2986,264.7134,62.92757,52.92772
307911.7,389.281,264.4857,62.80737,52.904
307927.5,387.2703,264.2382,62.68658,52.87818
307943.7,384.8578,263.8041,62.54034,52.83284
307963.9,383.0818,263.3878,62.43176,52.78927
307977.4,381.0016,262.6659,62.30357,52.7135
307993,378.6478,261.8051,62.1572,52.62281
308013,376.4623,261.0835,62.02,52.5465
308028.8,374.6892,260.4766,61.90778,52.48211
308045.5,373.0857,259.951,61.80558,52.42619
308059.9,371.7033,259.3129,61.71693,52.35812
308075.9,370.2636,258.6611,61.62405,52.28835
308094.9,369.0868,257.9282,61.54771,52.20965
