Time Stamp(ms),Intersection,,Angle,
,x,y,x,y
978347.4,322.9736,248.6014,58.23232,51.1833
978364.5,323.362,248.5526,58.26313,51.1778
978391.2,323.5791,248.5564,58.28033,51.17823
978402.3,323.9849,248.3763,58.31244,51.15795
978424.9,324.4619,248.3793,58.3501,51.15829
978443.8,325.0547,248.2602,58.3968,51.14486
978461.9,325.6788,248.0098,58.44583,51.11661
978484.3,326.3321,247.7588,58.49701,51.08826
978502.5,327.0581,247.6459,58.55371,51.07549
978523.4,327.7575,247.4985,58.60816,51.05882
978543.3,328.485,247.3616,58.66461,51.04332
978562.5,329.0376,247.2244,58.70737,51.02777
978582.1,329.3656,247.0578,58.73271,51.00889
978602.4,329.5684,246.7174,58.74835,50.97025
978621.5,329.5908,246.4351,58.75008,50.93816
978642.7,329.4189,246.2051,58.73682,50.91198
978662.7,328.9461,245.8034,58.7003,50.86619
978688.3,328.6895,245.6521,58.68045,50.84892
978699.4,328.186,245.4522,58.64143,50.82608
978719.1,327.6086,245.1667,58.59658,50.79342
978743.5,326.9861,244.8347,58.5481,50.75539
978763.4,326.245,244.6333,58.4902,50.73228
978782.7,325.4149,244.3755,58.42512,50.70268
978800,324.4163,244.1762,58.3465,50.67976
978823.1,323.2802,243.8779,58.25665,50.64542
978843.6,321.9501,243.5526,58.15086,50.60792
978862.9,320.2687,243.3158,58.01623,50.58058
978882.8,318.8713,243.1222,57.90356,50.5582
978900.8,317.2246,242.9518,57.76988,50.5385
978922.2,315.5856,242.8866,57.63583,50.53095
978943.7,313.9078,242.7923,57.49757,50.52003
978963.3,312.3199,242.7945,57.36576,50.52028
978982.7,310.7585,242.9716,57.23521,50.54079
979000.7,309.2937,243.1407,57.11189,50.56035
979020.1,307.5682,243.29,56.96557,50.57761
979040.5,305.6662,243.3707,56.80294,50.58693
979064,303.9033,243.399,56.65092,50.59019
979081.1,302.1974,243.5413,56.50265,50.60661
979100.6,300.7692,243.5315,56.37761,50.60548
979118.8,299.3076,243.5516,56.2488,50.6078
979139.6,297.6179,243.4725,56.09879,50.59867
979160.1,295.9556,243.36,55.95007,50.58568
979183.8,294.2984,243.1995,55.80067,50.56714
979199.1,292.8925,243.141,55.673,50.56038
979217.4,291.2159,243.2334,55.51967,50.57106
979238.4,289.6849,243.2226,55.37859,50.56981
979260.7,288.147,243.0498,55.23586,50.54984
979281.7,286.7678,242.9049,55.10698,50.53307
979299.6,285.3614,242.8471,54.9747,50.52637
979317.9,283.9915,242.853,54.84502,50.52707
979338.9,282.696,242.7477,54.72159,50.51487
979358.9,281.5034,242.6235,54.60731,50.50047
979379.4,280.1367,242.5249,54.47555,50.48904
979399.6,279.1255,242.3025,54.37751,50.46323
979418.4,278.0033,242.0067,54.26815,50.42888
979438.3,276.914,241.7776,54.16146,50.40222
979459.3,275.8805,241.5626,54.05971,50.37719
979480.1,274.7718,241.3378,53.94999,50.35099
979500.9,273.6854,241.2204,53.84193,50.33728
979518.7,272.5152,241.194,53.72491,50.33421
979537.8,271.1097,241.1922,53.58348,50.334
979559.3,269.8046,241.1706,53.4513,50.33148
979579.8,268.5236,241.2368,53.32076,50.3392
979598.6,267.1966,241.2632,53.18468,50.34228
979618.6,265.9987,241.2429,53.0611,50.33991
979637.6,264.8351,240.7747,52.94038,50.28521
979660.1,263.7729,240.0777,52.82958,50.20355
979679.4,262.8297,239.4701,52.73072,50.13213
979698.9,261.4655,238.9828,52.58693,50.0747
979717.8,260.2168,238.5911,52.45448,50.02843
979736.5,258.7192,238.0822,52.29458,49.9682
979758.9,257.0588,237.4295,52.11594,49.89071
979778.1,254.8512,236.7386,51.87618,49.80843
979799,252.7666,235.8838,51.64742,49.70622
979817.4,250.6783,234.8859,51.41589,49.58636
979836.6,248.3906,233.9796,51.15956,49.47699
979857.5,245.9996,233.0968,50.88856,49.36999
979878.1,243.6223,232.4412,50.61596,49.29022
979900.3,241.4259,231.8477,50.36125,49.21779
979918.5,239.432,231.2974,50.12765,49.15044
979938.7,237.4009,230.6315,49.88731,49.06868
979957.3,235.19,229.9164,49.62296,48.9806
979978.1,233.1145,229.2999,49.37214,48.90441
979999.1,230.9147,228.7087,49.10349,48.83112
980017.7,228.8775,228.1809,48.85207,48.76551
980036,226.723,227.6955,48.5834,48.70503
980055.9,224.8191,227.4668,48.34358,48.67647
980076.8,222.9923,227.2071,48.11133,48.64402
980097.7,221.0359,226.9643,47.86025,48.61364
980117.3,219.1772,226.7067,47.61943,48.58135
980136.3,217.3821,226.4505,47.38473,48.54922
980155.6,215.6061,226.2022,47.15046,48.51802
980175.9,213.9908,225.9543,46.93557,48.48685
980196.4,212.2925,225.864,46.70776,48.47548
980216.6,210.693,225.5133,46.49145,48.43129
980235.7,209.5932,225.1387,46.34169,48.384
980254.3,208.6905,224.8442,46.21817,48.34675
980275.5,208.1364,224.5406,46.14206,48.30831
980297.8,207.7021,224.2156,46.08228,48.26708
980316,207.5231,223.6649,46.05759,48.19708
980334.9,207.6978,222.9301,46.08168,48.10339
980361.7,207.8889,222.2424,46.10801,48.01538
980374.7,208.1407,221.5705,46.14266,47.9291
980393.5,208.4305,220.8316,46.18249,47.83389
980414.5,208.932,219.7196,46.25127,47.68993
980433.9,209.7648,218.2521,46.36511,47.49874
980453,210.705,216.8866,46.49307,47.31958
980470.9,211.5958,215.2956,46.61375,47.10929
980491.1,212.251,214.028,46.70217,46.94054
980514.6,212.8113,213.0693,46.77757,46.8122
980534.5,213.9066,211.7003,46.92432,46.62788
980551.8,215.4046,210.4918,47.12374,46.46411
980569.8,217.1901,209.3399,47.3595,46.30708
980589.2,219.2161,207.9751,47.6245,46.11988
980609.3,221.2203,206.9391,47.88402,45.97691
980632.1,222.8808,206.0079,48.09708,45.84777
980652.4,224.6344,205.1745,48.32019,45.73168
980669.7,226.8341,204.169,48.59732,45.59099
980688.2,230.1982,202.356,49.01535,45.33549
980709,234.6923,199.9227,49.56303,44.98893
980729.3,239.1106,197.1859,50.08978,44.59406
980749.9,243.4263,194.7262,50.59333,44.23454
980770.2,246.0268,193.1348,50.89167,43.99957
980791.9,247.9351,191.4824,51.10817,43.7536
980812.4,249.2726,189.6597,51.25873,43.47991
980830.5,250.5179,187.6636,51.39801,43.17733
980849.8,251.9267,185.4596,51.55458,42.83969
980868.6,253.3558,183.7177,51.71231,42.57023
980887.3,254.647,182.2883,51.85387,42.34734
980912.1,255.7318,181.0949,51.97213,42.16004
980928.3,256.9251,180.0573,52.10149,41.99627
980947.9,258.0219,179.1801,52.21974,41.85717
980967.9,258.9579,178.6684,52.32014,41.77575
980987.1,259.7319,178.3206,52.40284,41.7203
981006.5,260.3016,177.9757,52.46351,41.6652
981026.7,260.7745,177.8822,52.51374,41.65025
981046.9,261.0507,177.881,52.54302,41.65005
981067.7,261.2515,177.8049,52.56429,41.63787
981086.7,261.5019,177.8448,52.59077,41.64426
981105.5,261.7963,177.7228,52.62188,41.62474
981126.8,262.0182,177.4734,52.64529,41.5848
981147.1,262.0969,177.2483,52.65359,41.54869
981168,262.0833,177.0066,52.65216,41.50988
981191.8,262.2159,176.8047,52.66614,41.47743
981207.2,262.372,176.5617,52.68258,41.43834
981227.6,262.5108,176.3481,52.69719,41.40392
981248.9,262.4545,176.3268,52.69127,41.40049
981267.8,262.4443,176.1817,52.69019,41.37711
981287.6,262.5328,176.2524,52.6995,41.3885
981306.6,262.7196,176.2514,52.71915,41.38834
981326.4,262.9535,176.1245,52.74372,41.36788
981347.2,263.2052,176.0272,52.77013,41.35216
981367.4,263.432,175.9945,52.7939,41.34688
981392.3,263.6825,176.1108,52.82012,41.36567
981407.9,263.932,176.2655,52.84621,41.39061
981424.4,264.4445,176.4075,52.89969,41.41351
981444.6,265.0525,176.3893,52.96299,41.41058
981466.1,265.5502,176.4542,53.01465,41.42102
981485.7,266.2187,176.5675,53.08385,41.43927
981515.9,266.6756,176.7838,53.13103,41.47408
981533.6,267.14,176.8292,53.17886,41.48137
981553.4,267.4029,176.8981,53.2059,41.49246
981567.2,267.6181,177.0362,53.228,41.51464
981584.5,267.8957,177.1624,53.25648,41.53491
981604.4,268.17,177.1931,53.28459,41.53983
981623.2,268.5522,177.032,53.32369,41.51396
981641.6,268.8488,176.892,53.35398,41.49147
981663.7,269.056,176.6809,53.37512,41.45753
981683.1,269.3015,176.4399,53.40013,41.41872
981703.7,269.5564,176.0815,53.42607,41.36094
981722.9,269.5985,175.8025,53.43036,41.31587
981742.4,269.4278,175.7297,53.41299,41.30412
981760.6,269.2149,175.6892,53.39131,41.29757
981781.7,268.9499,175.7947,53.3643,41.31461
981807.4,268.5661,175.7487,53.32511,41.30719
981837.9,267.9033,175.7567,53.25726,41.30846
981861.9,267.2033,175.9062,53.18538,41.33262
981885.3,266.7655,176.1591,53.14029,41.37346
981898.4,266.5026,176.2841,53.11317,41.39362
981908.8,265.9833,176.479,53.05951,41.42503
981926.3,265.3506,176.7411,52.99394,41.46721
981945,264.4293,177.27,52.89811,41.55217
981967.9,263.6555,178.0763,52.8173,41.68128
981988.1,262.6358,179.2744,52.71033,41.87217
982007.6,261.3252,180.6848,52.57208,42.09542
982027.1,259.9365,182.06,52.42464,42.3116
982045.5,258.9533,183.4719,52.31965,42.53201
982067.5,258.3689,184.9054,52.25702,42.75422
982087.5,257.7863,186.4946,52.19439,42.9987
982105.7,257.372,188.2406,52.14975,43.26511
982125.1,256.7551,189.5012,52.0831,43.456
982144.8,255.8024,190.2781,51.9798,43.57304
982164,254.6342,190.8452,51.85248,43.6582
982186.7,253.2979,191.2893,51.70594,43.72472
982205.9,252.1503,191.571,51.57933,43.76684
982225.9,251.1792,191.6807,51.47165,43.78323
982245.4,250.164,191.7147,51.35852,43.78829
982265.4,249.1022,192.1306,51.2396,43.85033
982285.6,247.8961,192.7867,51.10377,43.94791
982304.8,246.4157,193.6998,50.93595,44.08319
982323.6,244.8983,194.501,50.76267,44.2014
982342.4,243.4251,195.4627,50.5932,44.34265
982364.6,241.316,196.9611,50.34844,44.56139
982391.9,240.3064,197.5813,50.23038,44.65144
982407.1,238.5508,198.4087,50.02367,44.77115
982424.9,236.8916,198.991,49.82667,44.85511
982443.8,235.3103,199.481,49.63741,44.92557
982463.1,233.876,199.9597,49.46446,44.99422
982484.3,232.8306,200.2822,49.33764,45.04039
982507.6,232.0642,200.4766,49.24424,45.06819
982526.9,231.3456,200.6661,49.15635,45.09526
982543,231.1491,200.9078,49.13225,45.12974
982560.3,231.3608,201.3919,49.1582,45.19869
982582.8,231.9785,201.9713,49.23377,45.28098
982602.8,232.801,202.5345,49.33403,45.36074
982623.1,233.6941,203.048,49.44244,45.43328
982642.3,234.8368,203.7136,49.58045,45.52702
982661.6,235.7268,204.3007,49.6874,45.60945
982681,236.3938,205.0025,49.76725,45.70767
982702.1,236.9405,205.6081,49.8325,45.79215
982722.6,237.7226,206.3297,49.92553,45.89247
982742.1,238.9724,207.1185,50.07347,46.00172
982760.9,240.8088,208.0826,50.2892,46.13467
982779.6,243.2255,209.07,50.57015,46.27017
982798.3,245.9449,210.0722,50.88232,46.40702
982818.6,248.5471,211.0085,51.17718,46.53425
982839.3,251.1282,211.8609,51.46597,46.64957
982860.6,252.9341,212.6467,51.66588,46.75544
982881.1,254.754,213.5261,51.86557,46.87343
982897.6,256.1501,214.3727,52.01756,46.98654
982918.7,257.962,215.3126,52.21329,47.11154
982938.8,259.8196,216.1697,52.41219,47.22503
982960.7,261.5349,217.1551,52.59426,47.35491
982978.5,263.2186,218.0337,52.77153,47.47018
982997.8,265.5191,219.0778,53.01142,47.6065
983018.5,267.4828,220.0134,53.21411,47.72805
983039.3,268.9834,220.9251,53.36771,47.84595
983059.8,269.8178,221.5909,53.45264,47.93172
983077.1,270.2642,222.1657,53.49794,48.00554
983096.1,270.4751,222.6759,53.51931,48.07089
983116.4,270.1751,223.0357,53.48891,48.11687
983140.8,269.5935,223.3797,53.42984,48.16075
983158.3,268.976,223.6869,53.36695,48.19988
983175.3,268.4138,224.0382,53.30953,48.24455
983196.6,268.041,224.6411,53.27138,48.32104
983216.6,267.766,225.2302,53.24318,48.39555
983238.4,267.4341,225.7467,53.20911,48.4607
983258.4,267.1024,226.1371,53.175,48.50984
983277.5,266.7364,226.486,53.13729,48.55366
983295.8,266.2568,226.8648,53.08779,48.60117
983317.5,265.838,227.1637,53.04448,48.63858
983341.5,265.3092,227.3879,52.98965,48.66661
983360.9,264.5944,227.5467,52.91532,48.68646
983379.7,263.6014,227.6835,52.81164,48.70352
983398.1,262.2635,227.7681,52.67115,48.71408
983419.8,260.6478,227.8586,52.50029,48.72537
983444.8,258.3116,228.1162,52.25086,48.75746
983465.7,256.3351,228.3157,52.03762,48.78228
983480.9,254.7626,228.5184,51.86651,48.80748
983497.3,252.8621,229.1152,51.65794,48.88153
983517.1,250.6407,229.7489,51.4117,48.95992
983540.8,248.1777,230.483,51.13556,49.05042
983559.7,245.8588,231.1456,50.87251,49.13182
983577.9,243.6918,231.797,50.62397,49.21159
983596.4,241.119,232.493,50.32545,49.29653
983617.6,238.8855,233.158,50.06322,49.37742
983639.3,236.9676,233.7063,49.83572,49.44392
983659.9,235.31,234.182,49.63737,49.50146
983678,233.8928,234.5984,49.4665,49.55172
983698.2,232.6982,235.0514,49.32152,49.60628
983715.9,231.9227,235.4119,49.22695,49.64961
983737.2,231.1316,235.7415,49.1301,49.68916
983757.3,230.3737,236.2374,49.03697,49.74855
983783.6,229.66,236.7292,48.94894,49.8073
983797.9,229.2105,237.172,48.89334,49.86007
983813.9,229.016,237.4263,48.86925,49.89033
983834,228.7765,237.6876,48.83954,49.92138
983856,228.534,238.0015,48.80943,49.95863
983876.3,228.4391,238.3082,48.79763,49.99496
983895,228.668,238.3821,48.82607,50.00372
983913.4,229.148,238.4452,48.8856,50.01118
983933.9,229.8888,238.3395,48.9772,49.99867
983956.5,231.2011,237.8963,49.13863,49.94615
983978.6,232.8791,237.3453,49.34353,49.88069
983998.6,234.0447,236.9999,49.48486,49.83958
984015.9,235.6535,236.5826,49.67861,49.7898
984035.4,237.593,236.2011,49.91014,49.74421
984054.3,239.8721,235.7265,50.17941,49.68737
984078.2,242.6457,235.2928,50.50304,49.63531
984096.4,245.4937,235.0266,50.83082,49.60329
984117.6,248.6076,234.59,51.18399,49.55071
984132.8,253.0658,233.9589,51.68039,49.47449
984167.9,257.3245,233.4191,52.14462,49.40911
984183.5,259.743,233.0519,52.40401,49.36453
984211.3,264.8301,232.4038,52.93985,49.28566
984225.5,268.6137,232.0264,53.32997,49.23962
984246.1,272.5312,231.5688,53.72651,49.18367
984262.8,276.2845,231.129,54.09954,49.12978
984282.6,280.5514,230.447,54.51562,49.04599
984298.1,284.8895,229.8641,54.93013,48.97414
984318.4,289.9956,229.5075,55.4073,48.9301
984341.8,294.27,229.4075,55.79809,48.91772
984361.8,298.1573,229.1983,56.14682,48.89183
984380.9,301.911,228.8824,56.47764,48.85267
984399.3,305.6735,228.5924,56.80356,48.81668
984419.7,309.1049,228.6249,57.09594,48.82072
984440.9,312.2569,228.8623,57.36051,48.85018
984461.3,315.394,229.3858,57.62009,48.91503
984479.3,318.6102,229.9354,57.88243,48.98295
984498.8,322.5647,230.2868,58.19982,49.02627
984519.8,326.259,230.4906,58.49129,49.05136
984541,330.0627,231.1762,58.78642,49.13558
984561.9,333.6415,231.9996,59.0596,49.23634
984580.6,336.8946,232.6051,59.3042,49.31019
984599.1,339.9821,233.2486,59.53313,49.38842
984617.8,343.2116,234.064,59.76932,49.48719
984639.6,346.1564,234.8432,59.98182,49.58122
984662.5,349.0807,235.7216,60.19016,49.68678
984690.3,351.8433,236.684,60.38459,49.8019
984702.1,354.3251,237.2821,60.5573,49.87318
984717.7,357.2378,237.7811,60.75766,49.93248
984739.1,360.2957,237.9103,60.96537,49.94781
984762.6,363.1409,238.2284,61.15621,49.98552
984781.9,365.955,238.4283,61.34272,50.00917
984800.8,368.7469,238.4711,61.5256,50.01425
984820.9,371.4695,238.1345,61.70188,49.9744
984841.5,374.1112,237.3772,61.87102,49.8845
984861.7,376.639,236.4444,62.03114,49.77329
984881.1,379.0263,235.6275,62.18083,49.6755
984899.3,381.2134,235.1878,62.31667,49.62268
984916.3,383.6448,234.7554,62.46627,49.57064
984937.3,385.955,233.9311,62.60703,49.47113
984959.7,387.9055,232.9672,62.72485,49.35424
984979.1,389.5944,232.1808,62.8261,49.25847
984999.7,390.9758,231.7837,62.90841,49.20996
985020.1,392.3344,231.4891,62.98891,49.17392
985041.6,393.1982,231.2538,63.03987,49.14509
985061,393.7191,230.6155,63.07051,49.06672
985081.4,393.7789,230.0575,63.07402,48.998
985104.3,393.5411,230.292,63.06004,49.02691
985117,393.5654,230.7484,63.06147,49.08305
985136.8,393.5084,231.317,63.05812,49.15283
985160.8,393.484,231.7879,63.05669,49.21047
985179.6,393.5153,232.0511,63.05853,49.24263
985200.8,393.4907,232.2075,63.05708,49.26172
985221.6,393.4815,232.3396,63.05654,49.27784
985240.2,393.4991,232.3127,63.05757,49.27456
985261.9,393.5693,232.326,63.0617,49.27618
985279.9,393.6984,232.2662,63.06929,49.26889
985301,393.8503,232.2043,63.07821,49.26134
985323.6,393.9763,232.1461,63.08561,49.25424
985336,394.1086,231.9706,63.09337,49.2328
985356.1,394.2954,231.7726,63.10433,49.20861
985382.2,394.4974,231.6052,63.11617,49.18813
985400.1,394.7834,231.5476,63.13291,49.18108
985421.4,395.1532,231.5726,63.15453,49.18415
985437,395.6578,231.4886,63.18398,49.17386
985456.6,396.2671,231.2746,63.21946,49.14764
985479.1,396.9844,230.9194,63.26112,49.10407
985501.9,397.9283,230.6747,63.31575,49.07399
985520.8,398.6147,230.6424,63.35536,49.07003
985536.5,399.4511,230.6523,63.40347,49.07125
985560.5,400.1981,230.5245,63.44629,49.05552
985581.8,400.9086,230.2539,63.48691,49.02221
985601.8,401.5245,230.1618,63.52203,49.01086
985616.6,401.7815,230.128,63.53666,49.0067
985635.6,401.8568,230.0993,63.54094,49.00317
985657.4,401.601,230.0084,63.52639,48.99195
985677.2,401.0012,230.1042,63.4922,49.00376
985697.1,400.1247,230.5169,63.44209,49.05459
985716.7,398.7201,231.1009,63.36143,49.12634
985735.9,397.2956,232.0477,63.27916,49.24222
985756.3,395.349,233.1455,63.16597,49.3759
985783.9,393.7334,234.4502,63.07135,49.53384
985798.9,392.1988,235.7015,62.9809,49.68437
985817.8,390.9118,237.0816,62.90461,49.84931
985838,389.7845,238.6012,62.83746,50.02963
985854.9,388.7265,240.1345,62.77415,50.21022
985877.5,388.0402,241.5077,62.73295,50.3708
985897,387.4875,242.9944,62.69967,50.54342
985918.4,386.9128,244.6138,62.665,50.73003
985934.9,386.6268,246.0483,62.64771,50.89412
985953.9,386.5547,247.5643,62.64335,51.06627
985975.7,386.4626,249.1807,62.63778,51.24842
985996.9,386.6472,250.7281,62.64895,51.42144
986016.3,387.0697,252.3133,62.67447,51.59735
986035.1,387.652,253.6429,62.70959,51.74386
986054.4,388.2668,255.1298,62.74657,51.90658
986073.3,388.9305,256.666,62.78638,52.07347
986095.6,389.8525,258.0758,62.84152,52.22552
986116.6,390.8547,259.2902,62.90122,52.35569
986137,391.5714,260.4124,62.94376,52.47528
986154.9,392.2066,261.7944,62.98136,52.62168
986174.1,392.8354,263.4704,63.01849,52.79792
986195,393.4702,265.3401,63.05587,52.99285
986218.6,394.0667,267.24,63.09092,53.18915
986234.4,394.8581,268.9191,63.13728,53.36115
986254.9,395.2429,270.5236,63.15977,53.52422
986274.7,395.6371,272.4258,63.18277,53.71594
986294.1,396.11,274.3041,63.21032,53.90355
986316,396.1518,276.1726,63.21275,54.08852
986334.8,396.3026,278.257,63.22152,54.29293
986353.6,396.3099,280.2148,63.22195,54.4831
986376.3,396.258,282.1805,63.21893,54.67227
986394.1,396.0132,283.8705,63.20469,54.83352
986414.6,395.7653,285.407,63.19025,54.97901
986435.5,395.3872,286.7544,63.1682,55.10573
986453.8,394.9705,288.0223,63.14386,55.22425
986472.2,394.1738,289.4185,63.0972,55.35394
986493.4,393.1403,290.722,63.03646,55.47427
986514.1,392.1143,292.4518,62.9759,55.63282
986534.6,390.8594,293.8297,62.9015,55.75819
986552.9,389.8171,294.9276,62.8394,55.85753
986572.4,389.2023,295.9242,62.80266,55.94725
986591.4,388.7653,297.15,62.77648,56.05705
986613.6,388.3731,298.5322,62.75295,56.18011
986634.8,388.6315,299.8494,62.76846,56.29665
986654.6,388.8866,300.7854,62.78375,56.37904
986671.2,389.1685,301.7032,62.80064,56.45948
986690.2,389.6888,302.8356,62.83174,56.55825
986710.5,390.2126,304.0474,62.863,56.66339
986732.4,390.7979,305.1921,62.89784,56.76218
986752.3,391.3611,306.4824,62.93129,56.87289
986772.1,391.6792,307.5142,62.95015,56.96097
986788.6,391.9181,308.4875,62.96429,57.04367
986809.1,392.2216,309.2828,62.98225,57.11098
986832.2,392.5007,310.0135,62.99874,57.1726
986852.6,392.7426,311.0544,63.01301,57.26002
986882.1,392.8226,311.5032,63.01773,57.29759
986894,392.8626,311.9846,63.02009,57.33781
986907.8,392.7937,312.387,63.01603,57.37135
986930.2,392.7569,312.8468,63.01386,57.4096
986951.8,392.8172,313.2141,63.01741,57.44011
986970.6,392.8621,313.703,63.02006,57.48063
986990.7,392.945,313.9332,63.02495,57.49968
987007.6,393.1899,314.2296,63.03938,57.52418
987028.1,393.3632,314.3973,63.04958,57.53802
987049.6,393.5699,314.536,63.06174,57.54947
987069.8,393.9129,314.5978,63.08189,57.55456
987088.1,394.3353,314.6727,63.10667,57.56074
987106.5,394.8238,314.7903,63.13527,57.57042
987128.2,395.1759,315.0192,63.15586,57.58927
987147.9,395.446,315.222,63.17163,57.60595
987168.7,395.6429,315.1967,63.18311,57.60387
987191.9,395.7404,315.1678,63.1888,57.6015
987207.9,395.7583,315.0373,63.18984,57.59076
987228.2,395.7523,314.6885,63.18949,57.56203
987248.1,395.6761,314.5944,63.18505,57.55428
987270,395.5965,314.525,63.18041,57.54855
