Time Stamp(ms),Intersection,,Angle,
,x,y,x,y
1544065,326.9847,250.2807,58.54799,51.37156
1544087,327.6033,250.4934,58.59617,51.39528
1544111,328.0128,250.7843,58.62799,51.42771
1544140,328.2785,250.9851,58.64861,51.45005
1544162,328.2654,251.2309,58.64759,51.47739
1544184,328.2916,251.3903,58.64962,51.4951
1544206,328.2822,251.5026,58.64889,51.50756
1544230,328.0721,251.5653,58.6326,51.51452
1544254,327.7942,251.7159,58.61101,51.53123
1544282,327.4744,251.8032,58.58614,51.5409
1544304,327.1321,251.8089,58.55947,51.54153
1544328,326.8169,251.8807,58.53489,51.54948
1544352,326.6172,251.8729,58.5193,51.54862
1544378,326.3073,251.8595,58.49507,51.54713
1544401,326.1093,251.9046,58.47957,51.55213
1544427,325.9337,251.9454,58.46582,51.55665
1544449,326.0246,252.1241,58.47294,51.57644
1544473,325.9055,252.2797,58.4636,51.59364
1544498,325.8663,252.2525,58.46054,51.59064
1544524,325.8265,252.2579,58.45742,51.59124
1544548,325.7297,252.2391,58.44983,51.58915
1544571,325.5656,252.3148,58.43694,51.59753
1544598,325.1927,252.3366,58.40766,51.59993
1544624,324.6742,252.3045,58.36684,51.59638
1544649,323.7478,252.4595,58.29369,51.61351
1544670,322.1238,252.548,58.16471,51.62328
1544695,320.1921,252.1849,58.01007,51.58316
1544724,318.506,251.7617,57.87399,51.5363
1544758,316.5809,251.4594,57.71735,51.50277
1544786,314.9849,251.3212,57.58645,51.48743
1544804,314.213,251.1379,57.5228,51.46705
1544822,313.1573,250.9634,57.43539,51.44764
1544842,311.6743,250.7166,57.3119,51.42017
1544864,309.8252,250.5923,57.15674,51.40631
1544888,307.7917,250.2982,56.98458,51.3735
1544912,304.9666,250.3328,56.74275,51.37737
1544937,301.4228,250.8317,56.43493,51.43299
1544964,297.4439,251.4615,56.08329,51.503
1544987,294.4147,251.7613,55.81118,51.53626
1545010,292.0821,251.4832,55.59903,51.50541
1545034,290.618,250.9043,55.4647,51.44107
1545061,289.8498,250.6475,55.39384,51.41247
1545084,289.9324,250.0718,55.40147,51.34821
1545109,289.7896,248.992,55.38828,51.22723
1545132,289.544,247.4014,55.36556,51.04782
1545158,289.5845,245.7931,55.36931,50.86501
1545183,289.4846,244.2791,55.36006,50.69159
1545205,289.457,242.8353,55.35751,50.52501
1545233,289.2909,241.7693,55.34212,50.40127
1545254,289.1187,240.8193,55.32617,50.29043
1545279,289.2359,239.5741,55.33703,50.14437
1545303,289.4367,238.5227,55.35563,50.02035
1545329,289.5984,237.7283,55.37059,49.92621
1545352,289.7764,236.9869,55.38705,49.83802
1545380,290.0339,235.8943,55.41084,49.70748
1545405,290.0405,234.864,55.41145,49.58373
1545430,290.0841,233.978,55.41547,49.4768
1545452,290.5126,233.1632,55.45499,49.37805
1545476,290.921,232.3272,55.49257,49.27633
1545503,291.3278,231.5123,55.52994,49.17675
1545525,291.7222,230.9481,55.5661,49.10758
1545550,292.2882,230.2386,55.61787,49.02033
1545573,292.6865,229.81,55.65422,48.96746
1545598,293.0967,229.3742,55.6916,48.9136
1545624,293.5099,229.0211,55.72916,48.86987
1545648,293.8292,228.6968,55.75816,48.82964
1545671,294.1367,228.4956,55.78602,48.80466
1545696,294.6577,228.494,55.83315,48.80446
1545722,295.0968,228.5294,55.8728,48.80886
1545746,295.8913,228.4996,55.9443,48.80515
1545770,296.6854,228.3827,56.01551,48.79062
1545794,297.3587,228.286,56.07568,48.77859
1545820,298.0609,228.34,56.13823,48.78531
1545844,298.8499,228.4904,56.20829,48.804
1545868,299.629,228.6235,56.2772,48.82055
1545890,300.5072,228.8958,56.35459,48.85433
1545916,301.9557,229.0016,56.48155,48.86745
1545938,303.4201,229.0505,56.60904,48.87352
1545960,305.0076,228.9198,56.74629,48.85731
1545987,306.5287,228.7921,56.87686,48.84148
1546012,308.5321,228.73,57.04745,48.83376
1546035,310.6645,228.3378,57.22733,48.78504
1546059,312.9751,227.9726,57.42027,48.73957
1546084,315.5667,227.639,57.63427,48.69798
1546107,318.0625,227.5362,57.83802,48.68514
1546132,321.255,227.4937,58.09533,48.67984
1546155,324.7714,227.0216,58.3745,48.6208
1546182,328.5422,226.3996,58.66904,48.54283
1546205,331.574,226.1252,58.90231,48.50834
1546230,333.971,225.9953,59.08453,48.492
1546253,335.4988,226.1295,59.19968,48.50889
1546278,336.4179,226.1223,59.26857,48.50798
1546303,336.928,226.0852,59.30669,48.50331
1546328,337.2843,225.956,59.33327,48.48705
1546354,337.1521,225.8875,59.32341,48.47844
1546375,337.1633,225.9055,59.32424,48.4807
1546401,336.8767,225.9013,59.30286,48.48017
1546424,336.9064,225.7404,59.30508,48.4599
1546450,336.9093,225.4307,59.3053,48.42086
1546472,337.0231,225.3841,59.31379,48.41499
1546498,337.0719,225.3749,59.31743,48.41383
1546523,336.9676,225.1928,59.30965,48.39083
1546548,336.7469,224.8787,59.29317,48.35112
1546575,336.5532,224.5876,59.27869,48.31427
1546593,336.2459,224.5597,59.2557,48.31072
1546619,335.9855,224.6302,59.23619,48.31966
1546647,335.7097,224.852,59.21551,48.34774
1546675,335.4808,225.0127,59.19832,48.36807
1546697,335.2524,225.0425,59.18116,48.37183
1546724,335.2219,225.1267,59.17887,48.38248
1546746,335.284,225.3323,59.18353,48.40845
1546770,335.1602,225.4745,59.17422,48.4264
1546790,334.9814,225.6098,59.16077,48.44345
1546817,334.609,225.7832,59.13271,48.4653
1546839,334.1501,225.8774,59.09807,48.47716
1546865,333.8258,226.0963,59.07355,48.5047
1546889,333.6821,226.2763,59.06267,48.52733
1546913,333.4142,226.5502,59.04237,48.56173
1546940,332.9636,226.6036,59.00818,48.56842
1546964,332.4532,226.6629,58.96937,48.57586
1546987,331.8382,226.8489,58.92249,48.59918
1547009,330.9575,227.1098,58.85513,48.63184
1547036,329.9523,227.3503,58.77793,48.66192
1547061,328.7667,227.5187,58.68642,48.68296
1547086,327.4343,227.6258,58.58302,48.69633
1547107,326.208,227.832,58.4873,48.72205
1547134,324.7645,228.073,58.37395,48.75208
1547158,323.3386,228.2241,58.26127,48.77089
1547187,321.3681,228.6035,58.10437,48.81805
1547206,319.0499,229.1587,57.918,48.88693
1547232,316.394,229.9229,57.70207,48.9814
1547256,313.5159,230.598,57.46513,49.06457
1547283,310.0336,231.4227,57.17429,49.16579
1547308,306.8879,232.287,56.90756,49.27143
1547329,303.0799,233.4448,56.5795,49.41222
1547355,299.2617,234.3951,56.24474,49.52719
1547378,295.6346,235.5215,55.92123,49.66277
1547403,292.1281,236.7493,55.60324,49.8097
1547427,289.5906,237.7875,55.36987,49.93324
1547452,287.3076,238.7979,55.15753,50.05288
1547476,285.7643,239.5666,55.01269,50.14349
1547500,284.377,240.4346,54.8816,50.2454
1547524,283.1515,241.365,54.76507,50.35416
1547550,282.0761,242.2959,54.66227,50.46247
1547574,281.349,242.9871,54.59247,50.54258
1547600,281.0173,243.7725,54.56054,50.63328
1547624,281.0734,244.5274,54.56595,50.72012
1547649,281.2033,245.2436,54.57845,50.80222
1547672,281.4227,246.2564,54.59955,50.91782
1547700,281.3446,247.12,54.59204,51.01595
1547733,281.0186,248.4343,54.56067,51.16448
1547762,280.7158,249.7122,54.53148,51.30799
1547777,280.5014,250.6093,54.5108,51.4082
1547794,280.4503,252.22,54.50586,51.58704
1547827,280.5768,253.0034,54.51807,51.67352
1547846,280.7869,253.9001,54.53834,51.77209
1547871,280.9996,254.729,54.55884,51.86283
1547894,281.1707,255.2263,54.57532,51.91711
1547921,281.3788,255.4237,54.59534,51.9386
1547942,281.4356,255.4958,54.60079,51.94646
1547967,281.2788,255.6334,54.58572,51.96142
1547990,280.9415,255.7618,54.55324,51.97539
1548013,280.5892,255.8677,54.51927,51.9869
1548040,280.3817,255.9659,54.49923,51.99756
1548071,280.1885,255.9575,54.48056,51.99665
1548090,280.2805,255.9926,54.48945,52.00047
1548115,280.4769,256.03,54.50843,52.00452
1548139,280.7602,256.1108,54.53576,52.01329
1548162,281.0833,256.2452,54.56689,52.02787
1548189,281.5246,256.2827,54.60934,52.03194
1548212,281.9535,256.2306,54.65052,52.02629
1548238,282.3896,256.3499,54.6923,52.03922
1548264,282.8356,256.5874,54.73494,52.06495
1548283,283.3569,256.6971,54.78465,52.07683
1548308,283.7221,256.7503,54.81942,52.08259
1548335,283.9423,257.0807,54.84034,52.1183
1548360,284.0444,257.342,54.85004,52.14651
1548385,284.107,257.6642,54.85598,52.18124
1548409,284.2479,258.0822,54.86935,52.22622
1548429,284.757,258.4198,54.91759,52.26248
1548455,285.3772,258.6178,54.97619,52.28372
1548480,286.0938,258.7223,55.0437,52.29491
1548505,286.9581,258.755,55.12482,52.29842
1548528,287.7543,258.8047,55.19926,52.30375
1548552,288.5757,258.8307,55.27576,52.30653
1548577,289.5206,259.0048,55.3634,52.32516
1548604,290.6867,259.1613,55.47102,52.3419
1548625,291.9328,259.1764,55.58538,52.34352
1548649,293.765,259.3423,55.75233,52.36125
1548674,296.1982,259.6515,55.97185,52.39426
1548699,298.5407,259.9458,56.18087,52.42564
1548724,301.4873,260.1949,56.44058,52.45216
1548753,303.8843,260.3496,56.64928,52.46861
1548774,306.1062,260.4988,56.84068,52.48447
1548799,308.2733,260.8665,57.02551,52.52349
1548824,310.7156,261.175,57.23161,52.55619
1548847,313.1401,261.1131,57.43396,52.54963
1548874,315.529,261.1522,57.63118,52.55378
1548904,317.9959,261.309,57.83261,52.57037
1548933,321.4338,261.6787,58.10963,52.60946
1548954,324.3367,261.2937,58.34022,52.56876
1548977,328.2386,260.912,58.64552,52.52832
1548998,331.6797,260.6807,58.91039,52.50378
1549024,334.8769,260.8276,59.1529,52.51937
1549044,337.9929,261.279,59.38599,52.5672
1549070,341.3738,261.5307,59.63532,52.59382
1549096,344.5067,262.0141,59.86311,52.64486
1549119,347.9468,262.9074,60.10969,52.73887
1549142,351.5637,263.7842,60.36501,52.83076
1549173,354.0522,264.3938,60.5384,52.89441
1549189,355.5732,265.3079,60.64346,52.98951
1549214,356.7704,265.9358,60.72569,53.0546
1549242,357.1905,266.7684,60.75443,53.14059
1549267,357.466,267.4391,60.77326,53.20962
1549288,357.7511,268.1857,60.79272,53.28619
1549310,358.2697,268.6507,60.82805,53.33375
1549337,359.1785,268.8983,60.88979,53.35903
1549362,360.372,269.2548,60.97051,53.39537
1549385,361.6607,269.5729,61.05721,53.42775
1549409,363.0466,269.7332,61.14992,53.44405
1549434,364.3722,269.7498,61.23809,53.44574
1549460,365.5074,269.7891,61.3132,53.44973
1549482,366.6955,269.8377,61.39144,53.45466
1549507,367.9056,270.1706,61.47071,53.48845
1549530,369.2616,270.5398,61.55907,53.52586
1549555,370.8868,270.7591,61.66432,53.54805
1549581,372.1487,270.7537,61.74554,53.5475
1549605,373.4332,270.7251,61.82779,53.54461
1549629,374.7015,270.8978,61.90857,53.56208
1549657,375.8083,271.1909,61.97871,53.59167
1549680,376.8775,271.3294,62.04616,53.60565
1549709,378.3935,271.633,62.1413,53.63625
1549728,379.6453,271.7798,62.2194,53.65103
1549751,381.1552,271.9495,62.31308,53.66809
1549777,382.9466,272.1419,62.42346,53.68744
1549800,384.9514,272.338,62.54604,53.70712
1549826,387.3004,272.1773,62.6884,53.69099
1549849,389.503,271.8195,62.82064,53.65501
1549876,391.7646,271.3451,62.9552,53.60723
1549897,393.8183,270.9504,63.07634,53.56739
1549923,395.674,270.4821,63.18493,53.52002
1549946,397.2385,269.9572,63.27584,53.4668
1549972,398.3992,269.5059,63.34294,53.42093
1549996,399.2399,268.9401,63.39133,53.36329
1550019,399.7917,268.3548,63.42301,53.3035
1550044,400.108,267.7598,63.44114,53.24255
1550068,400.3641,267.5428,63.4558,53.22027
1550094,400.7022,267.3569,63.47513,53.20117
1550117,401.0522,267.4005,63.49511,53.20565
1550143,401.438,267.2335,63.51711,53.18848
1550166,401.877,267.0754,63.54209,53.17221
1550193,402.2575,267.0193,63.56371,53.16644
1550215,402.7934,267.0984,63.59411,53.17458
1550242,403.1978,267.1255,63.617,53.17738
1550266,403.6791,267.0949,63.64421,53.17422
1550291,404.1146,267.045,63.66877,53.16909
1550315,404.294,266.9515,63.67888,53.15946
1550339,404.5426,266.8932,63.69288,53.15346
1550370,404.7002,266.9958,63.70174,53.16402
1550388,404.7656,267.1413,63.70542,53.17899
1550414,404.8212,267.119,63.70854,53.1767
1550436,404.9023,267.1544,63.7131,53.18035
1550461,404.7715,267.2417,63.70575,53.18932
1550486,404.6428,267.227,63.69851,53.18781
1550511,404.4304,267.2637,63.68656,53.19159
1550533,404.2065,267.272,63.67395,53.19244
1550560,403.8699,267.2639,63.65497,53.1916
1550583,403.6337,267.3282,63.64164,53.19822
1550607,403.4541,267.5468,63.6315,53.22068
1550631,403.3809,267.6887,63.62736,53.23525
1550654,403.3137,267.8415,63.62356,53.25093
1550681,403.3325,267.8282,63.62462,53.24956
1550706,403.2749,267.6766,63.62137,53.23401
1550730,403.3424,267.7181,63.62518,53.23826
1550752,403.4941,267.8454,63.63375,53.25133
1550778,403.7225,267.916,63.64666,53.25856
1550802,403.8272,268.0042,63.65257,53.2676
1550827,404.0086,268.0783,63.6628,53.2752
1550848,404.2415,268.1865,63.67592,53.28628
1550877,404.155,268.1162,63.67105,53.27908
1550898,404.3746,268.0978,63.68342,53.2772
1550923,404.8455,267.967,63.70991,53.26379
1550947,405.275,267.8757,63.73403,53.25443
1550972,405.6945,267.7167,63.75755,53.23812
1550997,405.9017,267.5434,63.76915,53.22033
1551022,405.7536,267.3105,63.76085,53.1964
1551046,405.2615,267.0275,63.73327,53.16728
1551069,404.3911,266.6452,63.68435,53.12789
1551093,403.1327,266.611,63.61332,53.12436
1551119,401.9334,266.6379,63.5453,53.12713
1551143,401.1543,266.3929,63.50093,53.10185
1551166,400.3536,265.999,63.4552,53.06113
1551191,399.7802,265.6221,63.42235,53.0221
1551214,399.2441,265.3818,63.39157,52.99718
1551239,398.8171,265.085,63.36701,52.96636
1551267,398.611,264.3317,63.35514,52.88794
1551289,398.5331,263.5818,63.35065,52.80959
1551314,398.3617,262.7174,63.34077,52.71892
1551336,397.5737,261.7572,63.29526,52.61775
1551362,396.4754,260.6772,63.23158,52.50341
1551387,395.2355,259.363,63.15934,52.36347
1551410,394.1439,258.2205,63.09544,52.24108
1551433,393.4936,257.3101,63.05725,52.14307
1551459,393.2275,256.1375,63.04159,52.01619
1551485,393.1053,254.8481,63.0344,51.87584
1551512,393.109,253.2612,63.03461,51.7019
1551533,393.3226,251.3322,63.04719,51.48865
1551559,393.3665,249.0042,63.04977,51.22859
1551585,393.7942,246.776,63.07492,50.97691
1551607,394.0194,244.6415,63.08814,50.73322
1551633,393.9748,242.7888,63.08552,50.51963
1551656,393.852,240.703,63.07832,50.27682
1551682,394.2397,238.3819,63.10106,50.00368
1551707,394.8613,236.4777,63.13747,49.77728
1551732,395.9272,235.1737,63.19968,49.62099
1551752,396.9471,233.748,63.25896,49.44896
1551777,398.5903,231.2848,63.35395,49.14888
1551806,400.0045,229.134,63.43521,48.88387
1551829,401.4063,226.6082,63.51529,48.569
1551853,402.6001,224.363,63.58315,48.28579
1551874,404.1596,221.5174,63.67131,47.92227
1551900,405.5165,219.165,63.74757,47.61785
1551924,406.6861,216.6981,63.81297,47.29475
1551950,407.8496,214.8589,63.87774,47.05127
1551975,409.0805,213.3427,63.94593,46.84886
1551998,410.2819,211.7407,64.01217,46.63334
1552021,411.4116,210.5521,64.07417,46.4723
1552047,412.1663,210.4063,64.11544,46.45248
1552070,412.4388,210.5652,64.1303,46.47409
1552094,412.3412,210.8897,64.12498,46.51814
1552121,412.3842,210.8638,64.12733,46.51463
1552145,411.9198,210.7107,64.10197,46.49385
1552167,411.5796,210.54,64.08337,46.47066
1552191,411.0835,210.3701,64.05619,46.44757
1552225,410.3046,210.2737,64.01341,46.43445
1552238,409.192,209.8604,63.95209,46.37815
1552263,408.0805,209.3447,63.89055,46.30774
1552291,406.9545,209.1017,63.82794,46.2745
1552315,406.0186,208.9946,63.77568,46.25984
1552338,405.1692,208.7563,63.72809,46.22719
1552362,404.3802,208.7945,63.68374,46.23243
1552386,403.4507,208.876,63.6313,46.2436
1552412,402.5941,209.2661,63.58281,46.297
1552434,401.8876,209.5123,63.54269,46.33064
1552460,401.4357,209.7853,63.51697,46.36791
1552483,401.7617,209.69,63.53553,46.35491
1552508,402.3049,209.5399,63.56641,46.33442
1552533,402.8437,209.3865,63.59696,46.31346
1552558,403.339,209.1475,63.62499,46.28078
1552582,403.6978,209.172,63.64526,46.28413
1552604,404.055,209.0926,63.66541,46.27326
1552631,404.1799,209.1458,63.67245,46.28054
1552654,404.269,209.2006,63.67747,46.28804
1552678,404.5898,209.189,63.69553,46.28646
1552710,405.1791,209.1506,63.72864,46.2812
1552729,405.6843,209.1409,63.75697,46.27987
1552751,406.1061,209.1582,63.78057,46.28224
1552775,406.2988,209.4437,63.79135,46.32127
1552800,406.2065,209.7458,63.78619,46.36252
1552827,406.1246,209.8935,63.78161,46.38266
1552850,405.9939,209.9827,63.7743,46.39482
1552883,405.9029,210.1729,63.76921,46.42072
1552903,405.7878,210.3909,63.76277,46.45039
1552929,405.6839,210.5815,63.75695,46.47629
1552951,405.717,210.7291,63.7588,46.49634
1552974,405.8548,210.6446,63.76652,46.48487
1553001,406.0946,210.5376,63.77993,46.47034
1553023,406.4031,210.4814,63.79718,46.4627
1553047,406.2793,210.5962,63.79026,46.4783
1553071,406.3163,210.6452,63.79233,46.48495
1553096,406.3983,210.4945,63.79691,46.46447
1553120,406.3457,210.3881,63.79397,46.45
1553147,406.2504,210.4287,63.78864,46.45553
1553169,406.123,210.4991,63.78152,46.4651
1553190,406.1199,210.1815,63.78135,46.42189
1553220,406.1672,209.8052,63.784,46.37062
1553245,406.1241,209.5505,63.78158,46.33586
1553263,405.9285,209.5136,63.77065,46.33082
1553286,405.9222,209.4913,63.77029,46.32778
1553312,405.9787,209.6103,63.77345,46.34402
1553336,405.7662,209.6284,63.76156,46.3465
1553364,405.3139,209.7507,63.73621,46.3632
1553385,404.9071,210.0314,63.71337,46.40146
1553407,404.4573,210.4565,63.68808,46.45931
1553435,404.2724,210.5188,63.67767,46.46777
1553461,404.2224,210.4802,63.67485,46.46253
1553495,403.7195,210.7985,63.64649,46.50577
1553515,403.3785,211.0703,63.62722,46.54262
1553532,402.6784,211.3394,63.58759,46.57907
1553564,402.1815,211.7274,63.55939,46.63154
1553584,401.6068,212.0536,63.52671,46.67558
1553606,401.2504,212.1798,63.50641,46.69259
1553629,400.5177,212.7366,63.46458,46.76752
1553654,400.1019,213.0758,63.44078,46.81308
1553682,399.6501,213.2979,63.41489,46.84287
1553704,399.3796,213.4768,63.39936,46.86683
1553728,399.0452,213.5468,63.38014,46.87621
1553753,398.8006,213.8346,63.36606,46.9147
1553774,398.3447,214.1264,63.33979,46.95367
1553801,397.9175,214.2483,63.31513,46.96994
1553824,397.5282,214.462,63.29262,46.99844
1553850,397.2371,214.6921,63.27576,47.02908
1553872,397.1224,214.9071,63.26912,47.05768
1553897,397.2152,215.0314,63.2745,47.0742
1553923,397.3942,215.1377,63.28487,47.08833
1553946,397.4725,215.2549,63.2894,47.10389
1553970,397.3751,215.5381,63.28376,47.14145
1553995,397.1795,215.7524,63.27243,47.16983
1554021,396.9385,215.7875,63.25846,47.17448
1554042,396.8381,215.3072,63.25264,47.11083
1554074,396.7656,214.7646,63.24843,47.03873
