Time Stamp(ms),Intersection,,Angle,
,x,y,x,y
985360.6,311.1951,249.7211,57.27181,51.30899
985378.8,310.9339,249.3655,57.24992,51.26915
985394.8,310.7417,249.1062,57.2338,51.24006
985410.6,310.6056,248.9762,57.22238,51.22545
985427.8,310.7183,249.0498,57.23183,51.23372
985443.8,310.8532,249.098,57.24316,51.23913
985460.9,310.8575,248.9987,57.24352,51.22797
985477.9,310.8953,248.6818,57.24669,51.19235
985494.1,310.9977,248.3256,57.25527,51.15224
985510.7,311.137,248.163,57.26694,51.1339
985527.8,311.2411,248.1754,57.27567,51.1353
985544.2,311.3388,248.4662,57.28384,51.16808
985560.5,311.3296,248.8396,57.28307,51.2101
985578.3,311.2875,249.0222,57.27954,51.23061
985594.8,311.0518,249.5347,57.25981,51.28812
985611.1,310.7224,250.153,57.23218,51.35729
985628.1,310.4844,250.5846,57.2122,51.40545
985645,310.1943,251.033,57.18781,51.45539
985661.4,310.1277,251.2827,57.18221,51.48314
985679.4,310.1125,251.4339,57.18093,51.49994
985695.9,310.287,251.3197,57.19561,51.48725
985711.6,310.5984,251.1374,57.22178,51.467
985728.3,310.963,250.9124,57.25236,51.44196
985745.3,311.3435,250.6307,57.28423,51.41059
985761.9,311.7799,250.4638,57.32072,51.39199
985779.4,312.131,250.2467,57.35001,51.36776
985795.2,312.4149,250.0327,57.37368,51.34385
985812.6,312.881,249.7875,57.41245,51.31642
985829.3,313.4476,249.4839,57.45947,51.28242
985846.4,314.106,249.2803,57.51396,51.25959
985863.4,314.8029,249.032,57.57147,51.23171
985880.7,315.5172,248.7553,57.63021,51.20062
985896.6,316.3024,248.5222,57.69458,51.17439
985912.3,317.3594,248.3054,57.78086,51.14995
985929.5,318.2666,248.1289,57.85458,51.13005
985945.5,319.3382,248.0497,57.94128,51.12111
985962.8,320.3327,247.8324,58.02137,51.09657
985979.7,321.2422,247.7106,58.0943,51.08281
985995.3,322.2347,247.4123,58.17355,51.04906
986013.5,323.0432,247.2547,58.23784,51.03122
986030.9,323.7943,247.0824,58.29737,51.01168
986049.3,324.3751,246.9661,58.34325,50.99849
986065.6,324.8398,247.0386,58.37989,51.00671
986081.4,325.2376,247.311,58.41119,51.03759
986099.6,325.5333,247.6819,58.43441,51.07956
986114.9,325.7893,248.2617,58.45449,51.14503
986130.7,325.8455,249.1571,58.4589,51.24577
986149.4,325.9208,249.9671,58.46481,51.33651
986165.9,325.8913,250.8438,58.46249,51.43433
986185.3,325.8326,251.5657,58.45789,51.51457
986201.4,325.8152,252.3593,58.45653,51.60244
986215.9,325.8329,253.2681,58.45792,51.70266
986230.9,325.9475,254.1548,58.4669,51.80002
986247.4,326.1736,255.0732,58.4846,51.90041
986264.6,326.6209,256.3145,58.51958,52.03539
986282.2,327.1126,257.5975,58.55796,52.17406
986297.9,327.8345,259.2011,58.61414,52.34616
986314.5,329.1328,261.527,58.71473,52.59344
986331.6,330.578,264.0184,58.82602,52.85523
986348,332.638,267.8348,58.98344,53.25024
986365.6,334.5552,271.425,59.12865,53.61529
986381.9,336.452,275.4478,59.27112,54.01696
986398.1,338.1897,279.8865,59.40061,54.45133
986414.2,339.8075,283.9919,59.52028,54.84505
986430.6,341.6609,287.5831,59.65633,55.18327
986447.4,343.5651,290.5919,59.79497,55.46229
986464.9,345.4349,293.3398,59.93,55.71371
986480.3,347.4201,296.0059,60.07218,55.95459
986497.8,349.1281,298.156,60.19352,56.14669
986514.3,351.078,300.1449,60.33096,56.3227
986529.9,353.0299,302.1922,60.46739,56.50219
986547.1,354.7672,304.0877,60.58787,56.66688
986563.9,356.5374,305.9923,60.70971,56.83092
986579.9,358.2224,307.7388,60.82483,56.98009
986597.2,360.0889,309.7237,60.9514,57.14818
986614.7,361.8171,311.3176,61.0677,57.28206
986630.3,363.9598,313.3358,61.21071,57.4502
986652.3,365.0612,314.4033,61.28372,57.53851
986663.9,366.4741,315.9257,61.37688,57.66372
986683.8,367.593,317.3256,61.45028,57.7781
986700.3,368.6769,318.7275,61.52104,57.89193
986717.9,369.4832,319.9305,61.57346,57.98902
986733.1,370.2788,321.1508,61.62503,58.08698
986749.3,371.1298,322.3008,61.68,58.17881
986768.2,371.843,323.4512,61.72591,58.2702
986782.4,372.343,324.4006,61.75801,58.34527
986800.6,372.6826,325.2669,61.77978,58.41349
986814.9,372.9358,326.0497,61.79599,58.47491
986830.8,372.9914,326.6679,61.79955,58.52326
986847.9,372.9737,327.3587,61.79842,58.57713
986874.9,373.0496,327.8851,61.80327,58.61807
986883.3,373.176,328.5913,61.81135,58.67284
986899.1,373.2963,329.0074,61.81905,58.70504
986914,373.4594,329.3665,61.82946,58.73278
986936.4,373.599,329.5104,61.83838,58.74387
986949.8,373.7361,329.3832,61.84712,58.73406
986964,373.8544,329.4129,61.85466,58.73636
986981.1,373.9589,329.2735,61.86132,58.7256
986999.1,373.9455,328.9846,61.86047,58.70328
987015,373.9152,328.709,61.85853,58.68196
987031.6,373.8387,328.333,61.85366,58.65284
987049.4,373.7711,327.9688,61.84935,58.62457
987067.9,373.756,327.6155,61.84839,58.59712
987084.6,373.7698,327.2332,61.84927,58.56736
987102,373.7735,326.9146,61.8495,58.54251
987116.4,373.9403,326.5555,61.86014,58.51447
987134.8,374.1044,326.2191,61.87059,58.48816
987151.3,374.2293,325.8752,61.87854,58.46123
987167.3,374.3713,325.608,61.88757,58.44027
987184.6,374.4887,325.3092,61.89504,58.41681
987199.9,374.5406,325.1655,61.89834,58.40552
987216.4,374.5226,324.9501,61.8972,58.38857
987233.2,374.4664,324.7344,61.89362,58.37159
987250.5,374.4148,324.5274,61.89034,58.35527
987266.6,374.3954,324.2106,61.88911,58.33027
987284.3,374.4074,323.8651,61.88987,58.30296
987302.8,374.5056,323.6022,61.89611,58.28216
987318.1,374.76,324.2885,61.91228,58.33642
987334.6,374.928,324.1115,61.92294,58.32244
987351.1,375.0591,323.9022,61.93126,58.3059
987367.2,375.1605,323.512,61.93769,58.27502
987388.1,375.2182,323.3342,61.94135,58.26093
987402.1,375.2534,323.0521,61.94358,58.23855
987418.8,375.2594,322.7754,61.94396,58.21657
987434.4,375.1739,322.3373,61.93854,58.18172
987449.5,375.0945,321.7956,61.93351,58.13853
987468.1,375.0132,321.311,61.92835,58.09981
987484.9,374.922,320.4995,61.92257,58.03477
987503.3,374.7919,319.765,61.91431,57.9757
987519.3,374.6831,318.9804,61.9074,57.91238
987534.6,374.5717,317.7727,61.90032,57.81448
987552.9,374.4681,316.627,61.89373,57.72111
987569.9,374.4715,315.1699,61.89395,57.60167
987587.6,374.5175,312.8672,61.89687,57.4113
987605.9,374.4626,311.3475,61.89338,57.28457
987619.3,374.2439,308.8041,61.87947,57.0705
987637,374.0969,306.3163,61.87011,56.85868
987653.9,373.8144,303.7094,61.85211,56.63413
987669.6,373.4167,301.1337,61.82674,56.4096
987686.9,372.9555,298.4979,61.79725,56.17707
987705.5,372.3811,296.3011,61.76046,55.98109
987720.4,371.8238,293.9595,61.72467,55.76997
987738.6,371.2126,291.946,61.68533,55.58659
987753.1,370.3424,289.5613,61.62914,55.36716
987771.8,369.5311,287.3569,61.57658,55.16214
987788.7,368.8435,285.5236,61.53189,54.99001
987802.9,367.7797,283.0406,61.46248,54.7545
987821.1,366.8201,280.8826,61.39961,54.54756
987841.3,365.5511,278.2125,61.31609,54.28859
987863.8,364.2546,275.5306,61.23029,54.02514
987879.3,363.4884,273.7119,61.17936,53.84458
987887.9,362.557,271.868,61.11723,53.6599
987905.3,361.6592,269.8059,61.05711,53.45143
987918.9,360.7141,267.5999,60.99358,53.22614
987937.3,359.8474,265.5187,60.93509,53.01139
987953.8,359.039,263.5818,60.88033,52.80958
987969.9,358.201,261.3951,60.82338,52.57948
987985.8,357.2106,259.0425,60.75581,52.3292
988003.6,356.0129,256.3493,60.67371,52.03916
988019.8,354.8611,253.7178,60.59435,51.75209
988034.6,353.3678,250.4583,60.4909,51.39137
988054.6,351.6313,246.8066,60.36975,50.98038
988070.6,349.886,243.5309,60.24707,50.60541
988091,347.9477,240.2684,60.10975,50.22593
988104.8,346.0852,237.4425,59.97671,49.89226
988119.9,344.4742,235.2087,59.86076,49.6252
988135,342.5527,232.7664,59.72141,49.32982
988152.3,340.755,230.4375,59.58996,49.04482
988169.1,339.1786,228.5746,59.47385,48.81447
988185.9,337.4218,226.5152,59.34351,48.55733
988205.7,336.1135,225.1109,59.24578,48.38047
988219.3,334.732,223.5962,59.14198,48.18833
988235.7,333.07,222.1825,59.01626,48.0077
988258.3,331.8246,221.3889,58.92146,47.90573
988269.8,330.3405,220.1444,58.80779,47.74503
988287.2,328.7954,218.9512,58.68864,47.59
988303.1,327.101,217.7656,58.55705,47.43505
988320.6,325.5525,216.8673,58.43592,47.31704
988338.6,324.1895,216.1831,58.32861,47.2268
988351.9,322.5869,215.2309,58.20159,47.1007
988369,321.0836,214.3119,58.0816,46.97842
988387.1,319.7081,213.3707,57.97112,46.85262
988403.6,318.2028,212.637,57.84941,46.75413
988423.8,317.001,212.0306,57.75165,46.67247
988440.2,315.8314,211.3984,57.65599,46.58706
988454.3,314.6064,210.7683,57.55527,46.50167
988470.3,313.3314,210.3259,57.44984,46.44155
988486.9,311.8603,210.0713,57.32742,46.40689
988504,310.2694,209.7605,57.19413,46.36453
988521,307.7119,209.2051,56.9778,46.28865
988537.3,304.7579,208.7117,56.72477,46.22107
988553.2,299.8742,208.2032,56.29884,46.15125
988569.9,294.7948,207.6994,55.84554,46.08191
988587.1,290.0689,207.4568,55.41408,46.04844
988603.6,285.9738,207.1567,55.03241,46.00699
988619.6,282.0434,206.9061,54.65913,45.97234
988635.7,278.2223,206.8663,54.28955,45.96684
988653.1,274.3333,206.8181,53.90645,45.96016
988670,271.1812,207.1205,53.5907,46.002
988686.6,268.3959,207.4313,53.3077,46.04493
988703.3,265.4904,207.6633,53.00845,46.07692
988722.6,263.5105,208.0071,52.80212,46.12428
988740.9,261.833,208.3389,52.62576,46.16991
988756.9,260.1673,208.6056,52.44922,46.20652
988772.9,258.2029,208.827,52.23919,46.23689
988789.1,256.7389,208.8799,52.08135,46.24413
988805.6,255.3373,209.0513,51.92919,46.26761
988822.6,253.9575,209.143,51.77839,46.28016
988839.9,252.8606,209.2006,51.65778,46.28804
988856.1,251.6098,209.2383,51.51946,46.29319
988873.5,250.5027,209.2589,51.39633,46.29601
988889.3,249.4573,209.4608,51.27944,46.3236
988908.3,248.3443,209.6773,51.15434,46.35317
988923.6,247.4422,209.7459,51.05245,46.36253
988939.3,246.6054,209.8313,50.95752,46.37419
988956.7,245.8976,210.0348,50.87694,46.40193
988973.1,245.1939,210.1048,50.79654,46.41146
988989.1,244.655,209.9368,50.73476,46.38857
989006.6,244.0374,209.882,50.66379,46.3811
989024.2,243.5607,209.8493,50.60885,46.37664
989040.3,243.1753,209.798,50.56434,46.36964
989057.4,242.8699,209.7398,50.52901,46.36171
989072.8,242.5428,209.693,50.49112,46.35532
989089.3,242.2689,209.8598,50.45934,46.37807
989106,242.0899,209.9735,50.43855,46.39357
989123.7,241.8991,210.157,50.41637,46.41856
989140.4,241.7143,210.4231,50.39486,46.45477
989156.6,241.5067,210.8051,50.37068,46.50665
989173.1,241.2698,211.0275,50.34305,46.53682
989190.8,241.1206,211.4188,50.32563,46.58982
989208.8,240.9814,211.6805,50.30938,46.6252
989223.4,240.8775,212.0335,50.29723,46.67286
989239.7,240.8014,212.2073,50.28834,46.69629
989256.5,240.7064,212.349,50.27723,46.71537
989278.6,240.6423,212.459,50.26972,46.73019
989290.1,240.6253,212.5685,50.26773,46.74493
989305.3,240.5743,212.671,50.26176,46.75871
989323.7,240.5896,212.7735,50.26355,46.77248
989339.2,240.7158,212.723,50.27832,46.76569
989355.9,240.8722,212.9105,50.29661,46.79089
989373.6,241.0618,212.8493,50.31878,46.78266
989390.2,241.2101,213.0506,50.33608,46.80969
989407.2,241.4711,213.2379,50.36652,46.83481
989427.1,241.6555,213.5202,50.38802,46.87265
989442.7,241.8775,213.6794,50.41385,46.89394
989461.4,242.0702,213.8264,50.43626,46.9136
989476.6,242.2091,213.9033,50.45239,46.92388
989487.4,242.3725,214.1389,50.47136,46.95534
989504.6,242.5162,214.1456,50.48803,46.95623
989522.8,242.2828,213.5111,50.46095,46.87142
989538.3,242.3975,213.3938,50.47427,46.85571
989555.3,242.6324,213.3107,50.50151,46.84457
989573.3,242.7906,213.17,50.51983,46.82571
989588.3,242.9975,213.0163,50.54379,46.80509
989605.3,243.214,212.8849,50.56881,46.78745
989621.6,243.3583,212.8827,50.58549,46.78715
989639.4,243.5379,212.6918,50.60622,46.7615
989656,243.6765,212.5352,50.62221,46.74044
989674.6,243.7852,212.5301,50.63474,46.73975
989690.8,243.8261,212.3656,50.63945,46.71762
989707.9,243.8374,212.3335,50.64076,46.71329
989724.1,243.8386,212.2518,50.6409,46.70229
989740.4,243.838,212.1383,50.64082,46.68699
989759.9,243.7977,212.0203,50.63618,46.67107
989771.4,243.7695,211.9714,50.63293,46.66448
989789.4,243.739,211.9108,50.62941,46.6563
989807.3,243.7241,211.7629,50.62769,46.63633
989824.4,243.6735,211.6892,50.62186,46.62637
989842.9,243.6032,211.6911,50.61376,46.62663
989857.1,243.7018,211.7913,50.62512,46.64017
989874.3,243.8098,211.8622,50.63757,46.64973
989891.9,243.9334,212.0189,50.65182,46.67088
989908.3,244.0712,212.1485,50.66768,46.68837
989924.1,244.1707,212.2445,50.67913,46.70131
989941.8,244.2971,212.444,50.69366,46.72817
989959.8,244.4173,212.3868,50.70748,46.72046
989974.4,244.5007,212.3825,50.71706,46.71988
989989.5,244.5196,212.3382,50.71923,46.71392
990006.6,244.4879,212.2511,50.71559,46.7022
990024.7,244.4661,212.1553,50.71308,46.68927
990041.1,244.3932,212.1061,50.70471,46.68264
990057.2,244.282,212.1209,50.69193,46.68465
990073.5,244.1172,212.0763,50.67298,46.67863
990090.2,243.9817,212.2117,50.65738,46.69688
990107.9,243.8525,212.2743,50.6425,46.70531
990125,243.7361,212.3492,50.62908,46.7154
990142.3,243.6349,212.4482,50.61741,46.72873
990159.1,243.5468,212.541,50.60725,46.74123
990173.6,243.5253,212.6762,50.60477,46.75941
990191.3,243.5623,212.8284,50.60904,46.77987
990207.2,243.5623,212.8981,50.60904,46.78923
990223.3,243.5866,212.9734,50.61184,46.79934
990240.5,243.5647,213.0971,50.60931,46.81594
990257.1,243.5878,213.0837,50.61197,46.81414
990272.8,243.6325,213.2145,50.61713,46.83168
990291.4,243.7119,213.0934,50.62629,46.81543
990308.4,243.8461,213.0848,50.64175,46.81429
990325.5,243.9725,213.0758,50.65631,46.81307
990342.5,244.1252,213.2069,50.6739,46.83066
990360,244.2369,213.3178,50.68674,46.84553
990375.5,244.3009,213.4948,50.6941,46.86923
990392.2,244.3847,213.6151,50.70372,46.88535
990408.4,244.4378,213.7814,50.70983,46.90759
990426.1,244.46,213.7503,50.71238,46.90343
990439.9,244.4197,213.6028,50.70776,46.88369
990458.4,244.4257,213.6094,50.70844,46.88458
990474.9,244.4577,213.5587,50.71211,46.87779
990492,244.4973,213.5105,50.71667,46.87133
990509.4,244.5441,213.62,50.72203,46.886
990525,244.6043,213.5875,50.72895,46.88165
990543.7,244.6319,213.5389,50.73212,46.87514
990558.3,244.6558,213.5321,50.73486,46.87423
990573.9,244.6651,213.5119,50.73593,46.87153
990594.2,244.7349,213.358,50.74393,46.85092
990610.3,244.7906,213.3457,50.75032,46.84927
990625.7,244.8284,213.2876,50.75466,46.84148
990644.6,244.9204,213.2542,50.76521,46.837
990658.2,245.2307,213.3018,50.80075,46.84338
990677.5,245.573,213.4058,50.83987,46.85732
990693.6,245.9231,213.5845,50.87984,46.88124
990709.3,246.3764,213.8214,50.93148,46.91294
990727.3,247.0481,214.1547,51.00779,46.95745
990743.5,247.9017,214.4557,51.1044,46.99759
990762.6,249.0786,214.9322,51.23695,47.06102
990779.9,250.7658,215.5453,51.42565,47.14241
990794.6,252.7743,216.3369,51.64826,47.24711
990811,254.7994,217.2571,51.87053,47.36832
990825.1,257.6228,218.8052,52.17678,47.57097
990844.8,260.3017,220.3662,52.46351,47.77374
990861.1,262.7368,222.0527,52.72095,47.99104
990876.6,265.8216,224.0129,53.04277,48.24134
990892.5,268.9619,225.7974,53.36551,48.46709
990910.1,272.0263,227.3829,53.67582,48.66599
990927,275.513,229.2773,54.0234,48.90162
990943.9,278.7292,231.114,54.33896,49.12794
990960,282.2442,232.8828,54.67838,49.34398
990976.4,285.4937,234.389,54.98719,49.52646
990993.1,288.8362,235.8535,55.29996,49.70258
991009.4,292.5835,237.4458,55.64484,49.89265
991030,295.5536,238.6543,55.91394,50.03591
991044.9,298.5234,239.55,56.17933,50.14153
991061.9,301.6965,240.5793,56.45889,50.26234
991078.5,304.0642,241.2293,56.66484,50.33833
991091.6,307.1372,242.1834,56.92884,50.44941
991110.5,309.6986,243.0396,57.14607,50.54865
991127,312.2118,243.8818,57.35675,50.64587
991144.3,314.7418,244.837,57.56643,50.75564
991159.9,317.1055,245.8,57.76017,50.8658
991177.3,319.4355,246.731,57.94913,50.97179
991194.6,321.7393,247.7761,58.13404,51.09021
991212.1,323.7534,248.9183,58.29413,51.21894
991228.9,325.6274,250.0203,58.4418,51.34246
991243.8,327.3989,251.1339,58.58026,51.46661
991260.4,328.996,252.1768,58.70415,51.58226
991276.6,330.2711,253.0578,58.80245,51.67951
991292,331.4419,254.034,58.89221,51.78678
991310,332.4986,255.1403,58.97282,51.90773
991327.8,333.5763,256.1161,59.05466,52.01387
991344.8,334.7815,257.1599,59.14571,52.12686
991361.1,336.0569,258.3603,59.24154,52.25609
991378.4,337.284,259.5609,59.33324,52.3846
991393.8,338.632,260.6938,59.43341,52.50518
991409.1,339.9647,261.875,59.53186,52.63019
991426.2,341.402,263.127,59.63739,52.76192
991442.8,342.952,264.6656,59.75046,52.92273
991462.4,344.2861,266.1333,59.84717,53.07502
991477.8,345.6358,267.712,59.94445,53.23764
991493.8,347.0187,269.5173,60.04353,53.4221
991514.8,348.9341,271.9944,60.17978,53.67261
991548.7,350.3925,273.5703,60.28278,53.83045
991566.2,351.2987,274.422,60.34645,53.91526
991579.1,351.8741,274.6367,60.38675,53.93658
991589.4,352.6107,275.1408,60.43819,53.98657
991602.4,353.3271,275.6987,60.48807,54.04176
991612.9,354.136,276.2883,60.5442,54.09991
991624.9,355.0766,277.3531,60.60923,54.20454
991641.4,355.9135,278.765,60.66687,54.34245
991657.9,356.7329,280.1031,60.72311,54.4723
991675.6,357.4466,282.2532,60.77193,54.67924
991693.3,358.0553,284.05,60.81346,54.85057
991708.6,358.6395,285.9271,60.8532,55.02802
991725.7,359.3376,287.4662,60.90057,55.17235
991753.3,360.2153,289.3082,60.95993,55.34373
991764.9,360.7666,290.4463,60.99711,55.44888
991776.8,361.5163,291.7806,61.04752,55.57145
991794.7,362.3215,293.1379,61.10148,55.69535
991810.9,363.1323,294.4751,61.15563,55.81665
991827.3,363.9426,295.7875,61.20957,55.93497
991844.1,364.7721,297.2506,61.26459,56.06604
991863.8,365.4479,298.3689,61.30927,56.16562
991880.1,366.2253,299.4952,61.36052,56.26538
991894.6,366.8566,300.4246,61.40201,56.34732
991910.3,367.5067,301.3293,61.44462,56.42675
991927.4,368.0792,302.1778,61.48205,56.50094
991944.9,368.442,302.8859,61.50573,56.56263
991961.3,368.7436,303.6125,61.52538,56.62572
991979.2,368.8617,304.0211,61.53307,56.66112
991991.3,369.0226,304.5569,61.54354,56.70742
992012.9,369.0374,304.8685,61.5445,56.7343
992027.4,369.0047,305.239,61.54237,56.76621
992042.4,368.9537,305.6382,61.53905,56.80053
992063.6,368.8316,305.8737,61.53111,56.82075
992076.6,368.7503,306.2091,61.52581,56.8495
992091.6,368.7122,306.5011,61.52333,56.8745
992109.1,368.6413,306.6306,61.51871,56.88558
992127.4,368.6162,306.7898,61.51708,56.89919
992144.9,368.5901,306.825,61.51538,56.90219
992162.2,368.5787,306.9406,61.51464,56.91206
992180.6,368.5255,307.0121,61.51117,56.91817
992192.6,368.4434,307.1676,61.50582,56.93143
992213.3,368.3306,307.3075,61.49846,56.94336
992225.6,368.2022,307.4716,61.49009,56.95735
992241.5,368.137,307.5652,61.48583,56.96531
992259.8,368.0917,307.7219,61.48287,56.97865
992275.5,368.0835,307.7553,61.48234,56.98149
992292.3,368.1094,307.8007,61.48402,56.98535
992309.6,368.1245,307.8527,61.48501,56.98977
992325.8,368.1134,307.8292,61.48429,56.98778
992342.2,368.0947,307.8524,61.48307,56.98975
992359.3,368.0552,307.8173,61.48049,56.98676
992376.3,367.9748,307.5682,61.47523,56.96557
992392.1,367.9335,307.3108,61.47253,56.94364
992409.1,367.9174,307.0424,61.47148,56.92075
992426.3,367.9062,306.6884,61.47075,56.89052
992442.9,367.8691,306.4355,61.46833,56.86889
992459.8,367.8079,306.1945,61.46433,56.84825
992476.4,367.7433,306.0121,61.4601,56.83261
992495.8,367.6294,305.8835,61.45265,56.82159
992515,367.5529,305.7537,61.44765,56.81045
992532.6,367.5999,306.098,61.45072,56.83998
992548.8,367.5206,306.2297,61.44554,56.85127
992564.6,367.4843,306.3617,61.44316,56.86257
992585.8,367.3958,306.614,61.43737,56.88416
992604.6,367.4006,306.7425,61.43768,56.89514
992625.6,367.3884,306.8435,61.43688,56.90377
992643.6,367.4107,306.924,61.43834,56.91064
992655.5,367.4549,307.0056,61.44123,56.91761
992665.6,367.5625,307.0098,61.44828,56.91796
992680.9,367.693,307.0504,61.45682,56.92144
992696.4,367.8591,307.029,61.46768,56.91961
992713.3,368.0092,307.0283,61.47749,56.91954
992730.3,368.0912,307.0323,61.48284,56.91988
992747.9,368.1532,306.9711,61.48689,56.91467
992764.5,368.1655,306.9692,61.48769,56.91451
992781.9,368.169,306.9855,61.48792,56.91589
992795.6,368.1588,307.0631,61.48725,56.92252
992811.6,368.1414,307.1667,61.48612,56.93135
992828.6,368.1065,307.2351,61.48384,56.93719
