Time Stamp(ms),Intersection,,Angle,
,x,y,x,y
1252149,315.7806,238.4348,57.65183,50.00994
1252165,315.3939,237.5291,57.62009,49.90255
1252182,315.097,236.5211,57.59567,49.78245
1252201,315.0043,235.9456,57.58805,49.71362
1252217,314.9212,235.7212,57.58121,49.68673
1252234,314.8235,235.3799,57.57316,49.64577
1252258,314.8345,235.2936,57.57407,49.6354
1252269,314.9644,235.378,57.58477,49.64554
1252287,315.0501,235.6928,57.59182,49.68332
1252303,315.1463,236.1283,57.59973,49.73549
1252319,315.201,236.8729,57.60423,49.82443
1252337,315.1768,237.5277,57.60224,49.90238
1252354,314.9491,238.0215,57.58351,49.961
1252369,314.609,238.3129,57.55548,49.99552
1252386,314.058,238.3584,57.50999,50.00091
1252404,313.568,238.3103,57.46944,49.99522
1252423,313.1019,238.2294,57.43079,49.98564
1252437,312.7059,237.8787,57.39789,49.94406
1252454,312.4517,237.5657,57.37673,49.9069
1252472,312.3724,237.2521,57.37014,49.86961
1252487,312.5436,236.989,57.38438,49.83827
1252505,312.715,236.8845,57.39865,49.82582
1252521,313.0053,236.8836,57.42277,49.82571
1252537,313.2932,237.077,57.44667,49.84877
1252554,313.4195,237.3627,57.45714,49.88277
1252570,313.3595,237.8015,57.45217,49.93491
1252588,313.1435,238.1758,57.43424,49.97929
1252604,312.7369,238.5632,57.40047,50.02514
1252620,312.0363,239.0771,57.34211,50.08582
1252637,311.131,239.4917,57.26645,50.13467
1252656,309.5219,240.0045,57.13116,50.19496
1252669,307.651,240.6779,56.97262,50.27389
1252689,305.5114,241.5139,56.78963,50.37151
1252705,302.4312,242.9369,56.52304,50.53678
1252720,299.5852,244.5691,56.27334,50.7249
1252739,296.3661,246.678,55.98691,50.96577
1252755,292.7552,249.5491,55.66049,51.28973
1252772,289.5345,252.1633,55.36468,51.58077
1252787,286.0196,255.0823,55.03672,51.9014
1252804,282.8753,257.747,54.73872,52.19016
1252820,279.5637,260.8229,54.42005,52.51887
1252838,276.8422,263.1993,54.1544,52.7695
1252851,273.9943,265.5556,53.87272,53.01521
1252869,271.4313,267.6218,53.61592,53.22838
1252885,269.1963,269.3893,53.38941,53.40907
1252901,267.0312,270.994,53.16766,53.57179
1252918,264.5878,272.4561,52.91463,53.71898
1252936,262.2933,273.7595,52.67429,53.84932
1252956,260.5634,274.6585,52.49133,53.93876
1252970,258.5202,275.5727,52.27325,54.0293
1252986,256.5093,276.5676,52.0565,54.12741
1253005,254.5273,277.4299,51.84078,54.21206
1253024,252.8962,278.1563,51.6617,54.2831
1253038,251.3261,278.8672,51.48797,54.35239
1253052,249.8253,279.3876,51.32065,54.40296
1253069,248.4581,279.8295,51.16716,54.44582
1253088,247.3603,280.1188,51.04317,54.47382
1253102,246.2514,280.4502,50.91725,54.50584
1253119,245.3166,280.7336,50.81057,54.5332
1253135,243.9962,281.0185,50.65904,54.56066
1253163,243.1333,281.1462,50.55949,54.57296
1253174,242.3057,281.3904,50.46362,54.59644
1253187,241.2054,281.655,50.33554,54.62187
1253204,240.1823,281.9011,50.21582,54.64549
1253223,239.2229,282.028,50.10302,54.65766
1253239,238.3933,282.1131,50.00504,54.66582
1253254,237.4131,282.2563,49.88876,54.67953
1253271,236.6543,282.3245,49.79837,54.68606
1253286,235.9341,282.4212,49.71224,54.69532
1253304,235.2616,282.4703,49.63155,54.70001
1253320,234.8137,282.3353,49.57767,54.6871
1253337,234.3445,282.1611,49.52108,54.67042
1253353,233.9694,281.8633,49.47576,54.64187
1253371,233.6321,281.6225,49.43493,54.61875
1253387,233.375,281.3119,49.40376,54.5889
1253404,233.2594,280.9484,49.38973,54.5539
1253421,233.1844,280.6292,49.38063,54.52313
1253437,233.0627,280.3212,49.36584,54.49338
1253454,233.1633,279.9887,49.37806,54.46123
1253471,233.3299,279.8081,49.39829,54.44374
1253486,233.5639,279.6861,49.42667,54.43192
1253504,233.7615,279.4953,49.4506,54.41341
1253520,234.1467,279.4746,49.4972,54.41141
1253537,234.4626,279.3418,49.53534,54.39852
1253554,234.9978,279.167,49.59983,54.38154
1253570,235.4925,279.0152,49.65929,54.36679
1253586,236.0251,278.8091,49.72314,54.34673
1253603,236.6427,278.6032,49.79697,54.32669
1253621,237.418,278.2226,49.88934,54.28957
1253638,238.3147,277.9172,49.99574,54.25974
1253655,239.3917,277.5963,50.12291,54.22836
1253673,240.8838,277.2261,50.29797,54.19208
1253689,242.2942,276.8933,50.46228,54.15943
1253704,244.1056,276.457,50.67164,54.11653
1253722,246.5478,275.9594,50.95097,54.06749
1253738,249.0835,275.4309,51.2375,54.01529
1253753,252.3272,274.9193,51.5989,53.96462
1253771,256.641,274.4221,52.07076,53.91528
1253787,260.7542,274.1164,52.51158,53.88487
1253803,265.8535,273.6708,53.04607,53.84048
1253821,269.9384,273.2988,53.46489,53.80334
1253836,274.3444,273.0183,53.90755,53.7753
1253853,279.0512,272.7425,54.37029,53.74769
1253870,283.1714,272.598,54.76697,53.73321
1253887,287.3502,272.4874,55.16151,53.72212
1253904,291.6633,272.3354,55.5607,53.70687
1253924,295.3002,272.1694,55.89112,53.69019
1253938,299.102,271.9941,56.23061,53.67258
1253954,302.5565,271.7954,56.53396,53.6526
1253970,306.2384,271.5248,56.85201,53.62535
1253988,309.6314,271.1953,57.1404,53.59212
1254005,313.1378,270.8571,57.43377,53.55796
1254023,316.4039,270.3864,57.70288,53.51032
1254040,319.3369,270.0259,57.94117,53.47377
1254056,322.7272,269.5569,58.21274,53.42612
1254075,325.9532,269.2216,58.46734,53.39199
1254092,328.7083,268.9768,58.6819,53.36703
1254107,331.5121,268.8236,58.89758,53.3514
1254124,334.2124,268.6855,59.10278,53.3373
1254142,336.688,268.6707,59.28877,53.33579
1254159,338.9512,268.6492,59.45704,53.3336
1254174,341.3944,268.6498,59.63683,53.33366
1254189,343.7829,268.6022,59.81076,53.3288
1254207,346.1726,268.6761,59.98298,53.33635
1254224,348.3855,268.7408,60.14087,53.34295
1254243,350.2531,268.8176,60.27296,53.35079
1254257,352.2633,268.774,60.41395,53.34634
1254274,354.5649,268.8073,60.57389,53.34975
1254290,356.7665,268.8696,60.72541,53.3561
1254308,358.6435,268.9738,60.85348,53.36673
1254325,360.3197,269.1444,60.96698,53.38412
1254341,361.8803,269.3003,61.07194,53.40001
1254359,363.1897,269.515,61.15946,53.42186
1254374,364.4717,269.711,61.24469,53.44179
1254391,365.7431,269.8658,61.32875,53.45752
1254408,366.8839,270.0901,61.4038,53.48029
1254432,367.8517,270.2829,61.46719,53.49984
1254444,368.4639,270.3939,61.50716,53.51109
1254464,369.1933,270.5192,61.55464,53.52378
1254478,369.7592,270.5704,61.59138,53.52896
1254489,370.2442,270.5688,61.62279,53.5288
1254510,370.6739,270.5931,61.65057,53.53126
1254523,371.027,270.5482,61.67336,53.52671
1254539,371.3261,270.466,61.69265,53.51839
1254555,371.5903,270.326,61.70965,53.50421
1254574,371.7963,270.2082,61.7229,53.49226
1254590,371.9,270.0457,61.72957,53.47578
1254607,373.2383,269.281,61.81534,53.39804
1254624,372.519,270.0609,61.7693,53.47732
1254642,372.174,269.4286,61.74717,53.41307
1254657,372.2639,269.4784,61.75294,53.41814
1254676,371.8656,269.1963,61.72736,53.38942
1254691,371.7241,268.944,61.71826,53.36369
1254708,371.4802,268.7596,61.70257,53.34487
1254725,371.0658,268.5438,61.67587,53.32283
1254744,370.6853,268.3296,61.65131,53.30093
1254760,370.2188,267.9749,61.62115,53.2646
1254775,369.6407,267.5883,61.58369,53.22494
1254791,369.075,267.236,61.54694,53.18874
1254808,368.2708,266.7744,61.49456,53.14122
1254824,367.4579,266.3122,61.44143,53.09351
1254842,366.6518,265.8248,61.38857,53.0431
1254859,365.8027,265.1834,61.33268,52.97659
1254873,364.8797,264.4478,61.27171,52.90004
1254891,364.0015,263.6382,61.21348,52.81548
1254907,362.91,262.6045,61.1408,52.70704
1254928,361.8788,261.5825,61.07183,52.59929
1254944,360.9233,260.7018,61.00766,52.50603
1254960,359.9509,259.8577,60.94208,52.41625
1254976,358.9386,258.9256,60.87352,52.31669
1254991,357.7435,257.8492,60.7922,52.20116
1255009,356.7166,256.9796,60.72199,52.10738
1255024,355.5251,255.8547,60.64015,51.98548
1255045,354.4878,254.7876,60.56855,51.86924
1255057,353.3635,253.6333,60.4906,51.74281
1255077,352.2314,252.3982,60.41172,51.60674
1255095,351.0772,250.9769,60.3309,51.44915
1255110,349.8835,249.6503,60.24691,51.30106
1255128,348.7441,248.3211,60.16631,51.15173
1255144,347.5049,246.9562,60.07822,50.99737
1255159,346.4532,245.8104,60.00308,50.86698
1255174,345.0427,244.327,59.90177,50.6971
1255191,343.7622,242.9998,59.80927,50.54405
1255208,342.3824,241.5496,59.709,50.37567
1255224,340.8908,240.0718,59.59993,50.20285
1255245,339.5203,238.6696,59.49909,50.03772
1255263,338.2993,237.4873,59.40874,49.89758
1255278,337.1022,236.3651,59.31969,49.76382
1255294,335.8118,235.1048,59.22317,49.6127
1255315,334.5739,233.9131,59.13007,49.46895
1255328,333.4437,232.8055,59.04461,49.33458
1255344,332.3384,231.6811,58.96063,49.19741
1255362,331.4373,230.6706,58.89186,49.0735
1255378,330.5438,229.4642,58.82339,48.92473
1255393,329.6477,227.9917,58.75447,48.74195
1255411,328.9271,226.7631,58.69883,48.58843
1255425,328.292,225.2381,58.64965,48.39656
1255443,327.7858,223.8725,58.61036,48.22349
1255458,327.316,222.4551,58.57381,48.04263
1255475,327.0041,220.5359,58.5495,47.79569
1255493,326.7512,218.9651,58.52976,47.59181
1255509,326.7635,217.284,58.53072,47.37185
1255525,326.7804,215.661,58.53204,47.15773
1255543,326.9883,213.9834,58.54826,46.93459
1255562,327.2156,212.4795,58.56599,46.73295
1255580,327.4881,211.0188,58.5872,46.53565
1255594,327.8947,209.5037,58.61882,46.32947
1255612,328.2576,208.257,58.64698,46.15865
1255629,328.6918,206.902,58.68063,45.97178
1255649,329.071,205.8525,58.70996,45.82616
1255660,329.4387,204.9271,58.73835,45.69713
1255678,329.8028,204.0527,58.76641,45.57467
1255692,330.196,203.1133,58.79667,45.44249
1255712,330.4332,202.4321,58.8149,45.34627
1255729,330.6886,201.6697,58.83451,45.23817
1255744,330.8504,201.0026,58.84692,45.14326
1255760,330.9452,200.3857,58.85419,45.05519
1255778,330.9467,199.7737,58.85431,44.96757
1255794,330.9507,199.1096,58.85461,44.87218
1255811,330.8957,198.6024,58.85039,44.79911
1255828,330.7443,198.1359,58.83878,44.73174
1255844,330.6075,197.701,58.82829,44.66879
1255861,330.4453,197.3294,58.81583,44.61491
1255878,330.1905,196.8331,58.79625,44.54276
1255894,330.0089,196.2664,58.78228,44.46018
1255911,329.8877,195.4855,58.77295,44.34599
1255928,329.8625,194.8346,58.77101,44.25048
1255945,329.9379,194.0791,58.77682,44.13921
1255961,330.0652,193.3042,58.78662,44.02466
1255980,330.3309,192.6785,58.80704,43.93184
1255994,330.9991,191.8671,58.85831,43.81105
1256011,331.71,191.2754,58.9127,43.72264
1256029,332.59,190.6901,58.97978,43.63494
1256045,333.9075,190.1675,59.07973,43.55641
1256064,335.189,189.8326,59.17639,43.50598
1256079,336.6412,189.3776,59.28527,43.43734
1256095,338.5134,188.9957,59.42462,43.37959
1256112,340.2689,188.614,59.55424,43.32177
1256130,341.7067,188.287,59.65968,43.27214
1256143,343.392,187.9263,59.78242,43.21732
1256160,344.8977,187.5871,59.89132,43.16566
1256177,346.4164,187.192,60.00044,43.10539
1256194,347.6561,186.8205,60.08899,43.04861
1256210,348.8235,186.4064,60.17194,42.9852
1256227,349.915,186.0363,60.24913,42.9284
1256244,350.9678,185.7336,60.32322,42.88188
1256261,351.8543,185.4474,60.38536,42.83782
1256277,352.6758,185.1353,60.44273,42.7897
1256294,353.3367,184.8877,60.48874,42.75148
1256310,353.7722,184.7672,60.51898,42.73286
1256326,354.2592,184.6359,60.55273,42.71257
1256343,354.5647,184.5804,60.57388,42.70398
1256361,354.763,184.5784,60.58758,42.70367
1256379,354.9239,184.6147,60.59869,42.70929
1256393,355.0149,184.6928,60.60498,42.72136
1256410,354.9578,184.8938,60.60103,42.75243
1256427,354.8595,185.0356,60.59425,42.77431
1256446,354.757,185.1502,60.58716,42.79201
1256469,354.6903,185.2082,60.58255,42.80095
1256480,354.5701,185.1543,60.57425,42.79263
1256495,354.4549,185.0633,60.56628,42.7786
1256510,354.3765,184.9777,60.56085,42.76538
1256525,354.2462,184.8256,60.55183,42.74189
1256543,354.2,184.6516,60.54864,42.715
1256561,354.1295,184.5253,60.54375,42.69545
1256577,354.1127,184.4313,60.54259,42.6809
1256594,354.1313,184.4131,60.54388,42.67808
1256610,354.1216,184.3614,60.5432,42.67008
1256627,354.1364,184.446,60.54424,42.68318
1256647,354.1828,184.5612,60.54744,42.701
1256664,354.2181,184.6753,60.54989,42.71866
1256679,354.2519,184.814,60.55223,42.7401
1256696,354.3813,184.8872,60.56118,42.75141
1256711,354.4169,184.9798,60.56365,42.76571
1256731,354.5005,185.0522,60.56944,42.77688
1256744,354.6009,185.1566,60.57638,42.793
1256761,354.6887,185.0892,60.58244,42.78259
1256782,354.7581,185.0768,60.58724,42.78068
1256798,354.8768,185.0889,60.59544,42.78255
1256814,354.9944,185.0909,60.60357,42.78286
1256828,355.0602,185.0908,60.6081,42.78284
1256845,355.0881,185.1308,60.61002,42.78901
1256863,355.0884,185.1893,60.61005,42.79804
1256880,355.0431,185.1568,60.60692,42.79303
1256899,354.9679,185.1912,60.60173,42.79833
1256914,354.852,185.2249,60.59373,42.80352
1256930,354.8033,185.2517,60.59037,42.80766
1256947,354.6646,185.3044,60.58078,42.81578
1256964,354.5057,185.3063,60.56979,42.81608
1256982,354.3695,185.3235,60.56037,42.81872
1256998,354.1003,185.395,60.54173,42.82975
1257014,353.8293,185.3385,60.52294,42.82104
1257032,353.4642,185.2516,60.49759,42.80764
1257048,353.0435,185.3313,60.46834,42.81992
1257063,352.4375,185.4051,60.42611,42.83131
1257081,351.711,185.5637,60.37533,42.85573
1257097,350.4877,185.8563,60.28948,42.90074
1257114,348.4075,186.4225,60.14243,42.98766
1257138,346.3943,186.9693,59.99887,43.07136
1257148,343.6757,187.683,59.80299,43.18027
1257165,340.3244,188.5332,59.55833,43.30952
1257181,335.622,189.6351,59.20892,43.4762
1257200,331.5693,190.5562,58.90195,43.61483
1257215,327.3351,191.3847,58.57529,43.73899
1257230,322.0065,192.2339,58.15535,43.8657
1257249,317.0863,192.8795,57.7586,43.96169
1257266,311.3409,193.4328,57.28402,44.0437
1257285,307.1641,193.6818,56.93113,44.08054
1257299,302.8258,193.8284,56.5574,44.1022
1257313,298.0535,193.9166,56.13758,44.11523
1257332,294.3156,193.9777,55.80222,44.12426
1257349,290.5058,194.0313,55.45436,44.13216
1257367,286.718,194.2152,55.10231,44.15929
1257384,283.9278,194.3762,54.83897,44.18301
1257399,281.1236,194.6852,54.57078,44.22851
1257417,278.047,195.0682,54.27243,44.28479
1257434,275.1927,195.4368,53.99172,44.33886
1257450,271.5546,195.9881,53.62835,44.41954
1257467,267.0172,196.5328,53.16623,44.49903
1257490,264.6254,196.7152,52.91854,44.5256
1257501,261.8478,196.827,52.62732,44.54187
1257516,258.3777,197.1317,52.25795,44.58618
1257529,253.9519,197.6233,51.77777,44.65753
1257548,250.5249,198.0995,51.3988,44.72647
1257563,246.3662,198.7144,50.93032,44.81526
1257581,243.097,199.1889,50.55529,44.88359
1257597,239.487,199.7233,50.13412,44.96034
1257614,235.6081,200.2065,49.67316,45.02956
1257631,231.7995,200.7838,49.21189,45.11205
1257648,228.247,201.3525,48.77374,45.19307
1257665,224.6801,201.9539,48.32598,45.27851
1257683,221.5939,202.402,47.93211,45.34201
1257700,218.6635,202.7732,47.55248,45.3945
1257717,215.8683,203.026,47.18518,45.43019
1257741,213.8454,203.247,46.91614,45.46134
1257752,212.1808,203.5184,46.69272,45.49957
1257765,210.1334,203.7439,46.41536,45.53128
1257784,208.6095,204.0216,46.20706,45.5703
1257800,207.0955,204.2027,45.99854,45.59571
1257818,205.5654,204.2635,45.78619,45.60424
1257834,203.9583,204.4231,45.56141,45.62661
1257850,202.3654,204.3781,45.33681,45.6203
1257868,200.8353,204.3833,45.1194,45.62103
1257884,199.486,204.4168,44.92628,45.62573
1257900,198.3589,204.4531,44.76396,45.63081
1257917,197.3822,204.5924,44.62256,45.65032
1257931,196.7134,204.7588,44.52534,45.6736
1257950,196.0142,204.8641,44.42335,45.68832
1257966,195.3804,205.0565,44.3306,45.71522
1257983,194.9881,205.2101,44.27302,45.73666
1258000,194.9082,205.4815,44.26128,45.77451
1258016,194.8572,205.7381,44.25379,45.81025
1258036,195.1463,206.1044,44.29625,45.86119
1258053,195.8851,206.5229,44.40448,45.91926
1258070,196.6648,206.9861,44.51826,45.98341
1258085,197.5334,207.4834,44.6445,46.05212
1258101,198.7525,207.9899,44.82076,46.12191
1258120,200.2191,208.7949,45.03136,46.23248
1258138,201.5944,209.5679,45.22747,46.33824
1258154,203.2061,210.5833,45.45558,46.47654
1258169,204.5252,211.3966,45.64091,46.58682
1258189,206.4141,212.6928,45.90417,46.76164
1258201,208.0219,213.7747,46.12632,46.90669
1258217,210.0712,215.1098,46.40688,47.08461
1258232,212.3147,216.4649,46.71076,47.264
1258250,214.2727,217.5378,46.9732,47.40517
1258268,216.4485,218.4539,47.26184,47.52511
1258285,218.672,219.2971,47.55359,47.63503
1258302,220.6395,220.0126,47.80908,47.72794
1258319,222.8293,220.4474,48.09049,47.78424
1258334,225.1303,220.9576,48.38293,47.85015
1258350,227.4435,221.58,48.67356,47.93032
1258367,229.9738,222.4511,48.98769,48.04211
1258386,232.6976,223.4174,49.32145,48.16555
1258403,235.073,224.5048,49.60887,48.30376
1258420,237.5047,225.6844,49.89965,48.45285
1258436,240.2606,227.1452,50.225,48.63627
1258452,242.8942,228.5601,50.53183,48.81266
1258470,245.3167,229.8965,50.81059,48.97815
1258487,249.4594,232.3928,51.27968,49.28432
1258515,251.3878,233.5566,51.49482,49.42578
1258526,253.2571,234.7808,51.70145,49.5737
1258538,255.0963,236.0828,51.90293,49.73005
1258553,257.2874,237.6,52.14062,49.91097
1258569,259.3232,239.2281,52.35921,50.10363
1258585,261.0307,240.8212,52.5409,50.29065
1258600,262.6235,242.3167,52.70904,50.46489
1258619,264.0198,243.8312,52.85538,50.64004
1258634,265.3711,245.1038,52.99607,50.78621
1258650,266.5047,246.2595,53.11339,50.91817
1258668,267.4773,247.3451,53.21354,51.04145
1258684,268.2917,248.3195,53.29705,51.15155
1258701,268.9167,249.3578,53.36091,51.26829
1258720,269.4348,250.1676,53.4137,51.35892
1258735,269.9616,250.9492,53.46725,51.44606
1258752,270.4259,251.5222,53.51433,51.50974
1258768,270.8241,251.9045,53.55463,51.55212
1258783,271.2359,252.3239,53.59622,51.59853
1258801,271.5137,252.5982,53.62423,51.62883
1258817,271.8372,252.9595,53.6568,51.66868
1258836,272.0777,253.2241,53.68098,51.69781
1258851,272.3292,253.4254,53.70624,51.71996
1258869,272.5296,253.5647,53.72635,51.73528
1258883,272.7619,253.7236,53.74963,51.75272
1258903,272.9172,253.7915,53.76519,51.76017
1258918,273.0881,253.8376,53.78228,51.76524
1258935,273.2741,253.8634,53.80087,51.76807
1258951,273.4177,253.9467,53.81522,51.7772
1258971,273.5264,253.8408,53.82607,51.76559
1258987,273.6075,253.8644,53.83417,51.76817
1259005,273.6835,253.7311,53.84174,51.75354
1259020,273.7571,253.6357,53.84908,51.74307
1259039,273.7473,253.542,53.84811,51.73277
1259051,273.7621,253.4323,53.84958,51.72072
1259069,273.7476,253.3639,53.84813,51.7132
1259089,273.6735,253.3518,53.84075,51.71186
1259105,273.6174,253.3295,53.83515,51.70942
1259121,273.5361,253.2166,53.82704,51.69699
1259140,273.4588,252.9452,53.81932,51.6671
1259155,273.429,252.6056,53.81635,51.62964
1259174,273.3815,252.4578,53.8116,51.61333
1259187,273.303,252.262,53.80376,51.59169
1259202,273.2087,252.0977,53.79434,51.57351
1259221,273.2476,251.958,53.79823,51.55805
1259236,273.2765,251.9246,53.80112,51.55435
1259252,273.2748,251.9002,53.80095,51.55165
1259269,273.2708,251.8845,53.80054,51.54991
1259287,273.32,251.942,53.80546,51.55627
1259305,273.3568,251.9959,53.80914,51.56224
1259320,273.4043,252.0522,53.81388,51.56847
1259337,273.5025,252.0346,53.82368,51.56653
1259354,273.6153,252.0552,53.83494,51.56881
1259370,273.7646,252.0642,53.84983,51.56981
1259387,273.9353,252.0089,53.86684,51.56369
1259404,274.1902,251.9527,53.89221,51.55746
1259420,274.4296,251.9788,53.91602,51.56035
1259437,274.6673,251.9632,53.93963,51.55862
1259453,274.9306,251.9315,53.96575,51.55511
1259469,275.2198,251.8986,53.9944,51.55147
1259486,275.518,251.8182,54.0239,51.54256
1259504,276.0072,251.9036,54.07221,51.55202
1259532,276.2232,251.9799,54.09351,51.56047
1259540,276.47,252.0168,54.11781,51.56456
1259558,276.7953,252.0334,54.1498,51.56639
1259569,277.1527,252.0086,54.18489,51.56365
1259588,277.5527,251.9669,54.22408,51.55903
1259602,278.0237,251.9793,54.27016,51.56041
1259619,278.5808,251.907,54.3245,51.5524
1259636,279.14,251.8779,54.37892,51.54918
1259653,279.7705,251.7997,54.4401,51.54051
1259669,280.5434,251.7697,54.51484,51.53719
1259686,281.5368,251.7309,54.61052,51.53288
1259703,282.4592,251.7483,54.69895,51.53481
1259722,283.6484,251.7646,54.8124,51.53662
1259738,285.0903,251.7584,54.94911,51.53594
1259757,286.7717,251.7559,55.10735,51.53566
1259776,288.5983,251.8428,55.27786,51.54528
1259793,289.8732,251.895,55.396,51.55107
