Time Stamp(ms),Intersection,,Angle,
,x,y,x,y
1720317,318.2746,252.3489,57.85523,51.60129
1720349,317.3975,252.0228,57.78396,51.56523
1720379,316.8072,251.4932,57.73583,51.50652
1720409,316.6692,250.1857,57.72456,51.36094
1720445,317.02,249.5004,57.7532,51.28428
1720476,317.5076,249.6149,57.79292,51.2971
1720509,317.7913,249.8406,57.81599,51.32236
1720544,317.9192,249.7458,57.82639,51.31176
1720572,317.9262,250.1599,57.82695,51.35806
1720607,317.666,251.1852,57.80581,51.47231
1720637,317.194,252.3301,57.76738,51.59922
1720671,316.7776,253.2403,57.73341,51.6996
1720704,316.4133,253.6548,57.70365,51.74517
1720735,315.9223,253.6584,57.66345,51.74556
1720768,315.4832,253.1048,57.62742,51.68468
1720800,315.2791,252.1911,57.61065,51.58385
1720838,315.2887,251.4876,57.61144,51.5059
1720863,315.3315,251.2058,57.61496,51.47461
1720898,314.9566,251.7321,57.58412,51.53302
1720929,314.0056,252.6958,57.50567,51.63961
1720963,312.8212,254.2478,57.40748,51.8102
1720997,311.2704,256.7486,57.27812,52.08241
1721031,309.8238,259.6303,57.15661,52.39201
1721063,308.2598,263.1382,57.02436,52.7631
1721096,306.8629,266.3057,56.90543,53.09285
1721129,305.7162,268.6656,56.80723,53.33527
1721158,304.5697,271.1198,56.70853,53.5845
1721191,303.376,273.6588,56.60522,53.83928
1721222,301.8956,277.0238,56.4763,54.17224
1721255,300.4551,281.1549,56.35001,54.57379
1721287,298.6911,287.2147,56.19421,55.14883
1721321,296.8701,292.5907,56.03204,55.64549
1721354,295.1719,296.6804,55.87956,56.01506
1721383,293.1805,300.5627,55.69923,56.35946
1721419,291.3565,303.175,55.53257,56.58776
1721448,289.1996,305.5375,55.33366,56.79188
1721482,286.7899,308.0525,55.10905,57.00675
1721521,284.4996,310.5709,54.89321,57.21946
1721550,282.2548,312.8168,54.67939,57.40711
1721579,280.2552,314.9792,54.48701,57.58599
1721612,278.3905,317.0848,54.30595,57.75848
1721647,276.8828,318.5118,54.15839,57.87446
1721679,275.4421,319.4961,54.0164,57.95402
1721715,274.0357,320.3655,53.87684,58.02401
1721745,272.7939,321.0239,53.75283,58.07682
1721777,271.6139,321.6414,53.63432,58.12622
1721809,270.5346,322.2977,53.52534,58.17856
1721842,269.5129,322.8001,53.42165,58.21854
1721895,268.6572,323.1506,53.33441,58.24636
1721915,268.0287,323.3643,53.27011,58.26331
1721946,267.5711,323.5385,53.22318,58.27711
1721984,267.402,323.6532,53.2058,58.2862
1722011,267.4111,323.7919,53.20674,58.29718
1722041,267.5462,323.8778,53.22062,58.30397
1722076,267.6247,323.9354,53.22868,58.30852
1722106,267.5944,323.9092,53.22557,58.30645
1722147,267.469,323.6348,53.21269,58.28474
1722173,267.2839,323.396,53.19366,58.26583
1722206,266.9837,322.9707,53.16278,58.23209
1722239,266.7363,322.3361,53.13728,58.18163
1722271,266.5995,321.7217,53.12318,58.13263
1722303,266.4465,321.1895,53.10738,58.09009
1722337,266.5139,321.3766,53.11434,58.10505
1722372,266.5214,321.1031,53.11511,58.08317
1722404,266.5801,320.805,53.12117,58.05928
1722434,266.7163,320.7425,53.13522,58.05427
1722467,266.9463,320.8462,53.15892,58.06258
1722503,266.9844,321.1161,53.16284,58.08421
1722534,266.3209,321.5256,53.09441,58.11697
1722568,263.8467,322.4802,52.8373,58.1931
1722602,260.8449,323.3721,52.52121,58.26394
1722630,258.0869,324.1024,52.22672,58.32172
1722664,255.2577,324.6364,51.92052,58.36386
1722696,252.3367,324.9201,51.59994,58.38621
1722729,249.1562,325.6958,51.24567,58.44717
1722764,245.8575,326.8882,50.87236,58.54046
1722796,241.6253,328.2833,50.38449,58.64898
1722826,235.9052,329.941,49.70878,58.77706
1722859,229.6723,331.5764,48.95046,58.90249
1722891,222.8261,333.1141,48.09009,59.01961
1722924,216.5855,334.5004,47.27991,59.12452
1722955,211.3207,335.1481,46.57654,59.17332
1722989,207.2221,335.8206,46.01604,59.22383
1723022,204.9189,335.8569,45.69598,59.22655
1723057,203.9977,336.1758,45.56695,59.25045
1723092,204.438,336.2596,45.62869,59.25673
1723127,206.7216,335.9683,45.9468,59.23491
1723155,211.2465,335.5884,46.5665,59.20641
1723184,217.9979,335.0485,47.46548,59.16582
1723218,225.7244,334.4215,48.45789,59.11857
1723250,233.5459,333.5583,49.42448,59.0533
1723283,240.6444,332.8558,50.26996,59
1723320,246.9821,332.3686,51.00031,58.96293
1723348,253.2294,331.9074,51.69841,58.92777
1723381,260.8337,330.8281,52.52002,58.84521
1723423,266.502,329.8281,53.11312,58.76836
1723448,273.8408,328.8737,53.85742,58.6947
1723480,281.9547,327.8134,54.65063,58.6125
1723514,289.8476,327.0314,55.39363,58.55163
1723544,297.2278,326.3618,56.064,58.49933
1723574,304.6017,325.5416,56.71129,58.43507
1723607,310.6799,324.8519,57.22861,58.38084
1723640,316.2017,324.4568,57.68634,58.3497
1723672,320.7358,324.2769,58.05373,58.3355
1723707,323.8695,324.29,58.30331,58.33654
1723738,326.1632,324.2808,58.4838,58.33581
1723770,327.7081,324.5996,58.60432,58.36096
1723803,328.5845,325.0002,58.67232,58.39252
1723837,329.1819,325.3406,58.71852,58.41928
1723867,329.605,325.7958,58.75117,58.45501
1723903,329.8978,326.3447,58.77373,58.498
1723932,329.8643,326.6358,58.77115,58.52075
1723965,329.6819,326.9862,58.7571,58.5481
1723999,329.4896,327.4509,58.74227,58.58431
1724028,329.4107,327.9634,58.73619,58.62415
1724060,329.5192,328.1671,58.74455,58.63996
1724093,329.6039,328.2925,58.75109,58.64969
1724130,329.55,328.3648,58.74694,58.6553
1724160,329.4355,328.2811,58.7381,58.64881
1724192,329.4542,328.0351,58.73954,58.62972
1724224,329.5345,327.7032,58.74574,58.60393
1724258,329.7103,327.2844,58.75929,58.57134
1724288,329.9892,326.7315,58.78077,58.52822
1724325,330.994,326.0789,58.85792,58.47719
1724354,333.3382,324.6567,59.03661,58.36547
1724393,335.9653,323.0264,59.23468,58.23651
1724406,338.2541,321.7352,59.40538,58.13371
1724426,340.6005,320.3073,59.57862,58.01933
1724443,342.8676,318.7189,59.74432,57.89122
1724462,345.1223,316.5532,59.9075,57.71509
1724484,347.0823,314.523,60.04807,57.54839
1724502,348.8591,312.0625,60.17447,57.3443
1724521,350.4268,309.1372,60.28519,57.09867
1724540,351.6179,306.6511,60.36882,56.88733
1724558,353.021,304.0292,60.46677,56.66182
1724580,354.6479,301.4991,60.57963,56.44162
1724604,357.2298,297.6789,60.75712,56.10424
1724630,359.9998,293.868,60.94538,55.76167
1724661,362.5417,289.533,61.11621,55.36454
1724695,364.0857,284.7031,61.21907,54.91248
1724728,364.8825,279.8319,61.2719,54.44605
1724760,365.0385,275.1595,61.28222,53.98843
1724794,365.0408,270.5794,61.28237,53.52987
1724827,364.7872,266.9998,61.26559,53.16443
1724860,364.5065,264.049,61.24699,52.85843
1724893,364.1168,260.7572,61.22114,52.51191
1724925,363.6134,257.9393,61.18768,52.21085
1724960,362.9846,255.0216,61.14579,51.89478
1724989,362.1777,251.4385,61.09185,51.50045
1725026,361.4482,248.0256,61.04295,51.1184
1725056,360.6258,245.0963,60.98762,50.78535
1725094,360.0948,243.4361,60.9518,50.59447
1725117,359.5986,242.0809,60.91825,50.4375
1725151,359.0644,241.0915,60.88206,50.32224
1725188,358.4786,241.4715,60.84227,50.36657
1725223,358.1482,242.2522,60.81979,50.45741
1725244,357.9517,242.9162,60.80639,50.53437
1725268,357.8154,243.9683,60.7971,50.65583
1725300,358.0424,244.656,60.81258,50.73488
1725331,358.3243,244.7914,60.83177,50.75042
1725363,358.7721,244.8607,60.86221,50.75836
1725398,358.808,245.0931,60.86465,50.78499
1725427,358.6645,245.4047,60.85491,50.82065
1725461,358.5455,245.6094,60.84682,50.84403
1725494,358.5093,245.3592,60.84436,50.81544
1725526,358.5313,244.7257,60.84586,50.74289
1725562,358.8155,244.0521,60.86516,50.66548
1725594,359.0858,243.9448,60.88351,50.65313
1725627,359.3764,244.0624,60.90321,50.66667
1725659,359.5378,244.3164,60.91414,50.69587
1725690,359.637,244.339,60.92085,50.69848
1725726,359.6152,244.5087,60.91938,50.71797
1725760,359.6876,244.3862,60.92427,50.7039
1725789,359.9622,243.7914,60.94284,50.63545
1725828,360.2735,243.6591,60.96387,50.6202
1725857,360.52,243.7918,60.98049,50.6355
1725890,360.3471,244.0314,60.96883,50.66309
1725922,359.9562,244.2594,60.94244,50.68933
1725956,359.534,244.8569,60.91388,50.75792
1725986,359.1752,245.4382,60.88957,50.82447
1726021,358.8699,245.5447,60.86885,50.83665
1726055,358.4861,245.1061,60.84278,50.78647
1726082,358.0925,244.4485,60.81599,50.71106
1726114,357.9827,243.5493,60.80851,50.60754
1726149,357.9253,242.6536,60.8046,50.50397
1726181,358.0528,242.0254,60.81328,50.43105
1726215,358.243,241.738,60.82624,50.39762
1726251,358.4599,241.7308,60.841,50.39677
1726284,358.7552,241.6822,60.86107,50.39112
1726317,359.1555,241.1586,60.88824,50.33008
1726348,359.6184,240.9704,60.91959,50.3081
1726381,359.9911,240.9381,60.9448,50.30432
1726420,360.1509,240.9827,60.95559,50.30953
1726450,360.1822,240.6558,60.9577,50.2713
1726480,360.1373,240.9869,60.95467,50.31002
1726513,360.1605,241.2609,60.95624,50.34201
1726545,360.2651,241.929,60.96329,50.41985
1726577,360.6008,242.6351,60.98594,50.50182
1726615,360.9305,243.082,61.00814,50.55356
1726645,361.138,243.0865,61.0221,50.55408
1726676,361.1721,242.9309,61.02439,50.53608
1726709,360.94,243.0655,61.00879,50.55165
1726740,360.6129,243.0981,60.98675,50.55542
1726771,360.2675,242.9381,60.96346,50.53691
1726801,360.1609,243.029,60.95626,50.54743
1726839,360.2047,243.2613,60.95922,50.57428
1726868,360.3524,243.1948,60.96919,50.5666
1726906,360.4602,243.4733,60.97646,50.59877
1726937,360.4304,243.4619,60.97445,50.59745
1726967,360.309,243.2947,60.96626,50.57814
1727001,360.1882,243.0951,60.9581,50.55508
1727033,360.1129,243.2554,60.95303,50.5736
1727068,360.1483,243.4909,60.95541,50.6008
1727099,360.2291,243.819,60.96087,50.63863
1727130,360.3612,244.0437,60.96978,50.66451
1727165,360.5126,244.1117,60.97999,50.67234
1727199,360.8815,244.1993,61.00484,50.68241
1727229,361.3574,244.7535,61.03684,50.74607
1727266,361.8102,245.5075,61.06723,50.8324
1727298,361.809,245.9442,61.06715,50.88225
1727326,361.6541,246.4034,61.05676,50.93455
1727361,361.3499,246.6743,61.03634,50.96536
1727393,360.9874,246.789,61.01197,50.97838
1727425,360.6704,246.9439,60.99063,50.99596
1727458,360.5256,247.108,60.98087,51.01458
1727488,360.713,247.1913,60.9935,51.02402
1727521,360.7995,246.9971,60.99932,51.002
1727561,360.745,246.9193,60.99565,50.99318
1727594,360.646,246.951,60.98899,50.99678
1727612,360.4684,246.8263,60.97701,50.98262
1727643,360.1639,246.8609,60.95647,50.98655
1727654,359.9812,246.9871,60.94412,51.00087
1727665,359.7371,247.1451,60.92762,51.0188
1727688,359.5119,247.0777,60.91238,51.01115
1727707,359.251,247.0406,60.89471,51.00694
1727733,359.0482,247.0472,60.88095,51.00769
1727750,358.8991,247.1366,60.87084,51.01782
1727767,359.2575,246.2605,60.89515,50.91829
1727787,359.2844,246.119,60.89697,50.90217
1727807,359.2925,245.8146,60.89753,50.86746
1727829,359.2652,245.4385,60.89567,50.8245
1727847,359.1541,244.9541,60.88814,50.76907
1727866,359.0356,244.6839,60.8801,50.73809
1727885,358.8679,244.5455,60.86872,50.7222
1727905,358.7605,244.6532,60.86143,50.73456
1727924,358.8022,244.7399,60.86426,50.74451
1727946,358.9318,244.7759,60.87306,50.74864
1727964,359.0587,245.061,60.88167,50.78131
1727983,359.318,245.2746,60.89925,50.80576
1728001,359.7553,245.5939,60.92886,50.84227
1728032,360.3963,246.1377,60.97215,50.9043
1728067,361.1919,246.6414,61.02572,50.96161
1728114,361.4874,246.82,61.04557,50.98191
1728135,361.6826,247.0473,61.05868,51.00769
1728167,361.7813,247.0105,61.06529,51.00353
1728201,361.9333,246.9921,61.07549,51.00143
1728235,362.2776,247.1714,61.09854,51.02177
1728271,362.576,247.3196,61.1185,51.03857
1728290,362.8465,247.4847,61.13657,51.05726
1728316,363.3163,247.6133,61.1679,51.0718
1728346,363.7837,247.7625,61.19901,51.08867
1728378,364.2498,247.8837,61.22997,51.10237
1728411,364.575,247.9377,61.25153,51.10847
1728442,364.6602,248.082,61.25718,51.12476
1728478,364.5707,248.4007,61.25125,51.16069
1728509,364.3101,248.6994,61.23397,51.19433
1728541,364.088,248.8837,61.21922,51.21505
1728579,364.0729,248.8484,61.21822,51.21109
1728608,364.2242,248.816,61.22827,51.20744
1728641,364.4704,248.8044,61.2446,51.20613
1728672,364.8886,248.8988,61.2723,51.21675
1728705,365.5567,248.8358,61.31646,51.20967
1728739,366.3156,248.9628,61.36646,51.22395
1728770,367.1529,248.986,61.42145,51.22655
1728803,367.9008,248.9794,61.4704,51.22581
1728836,368.4612,248.9857,61.50698,51.22651
1728867,368.7744,248.7328,61.52738,51.19809
1728901,368.96,248.4449,61.53946,51.16568
1728934,369.0495,248.0785,61.54528,51.12436
1728967,369.2061,247.6717,61.55547,51.07841
1729000,369.4891,247.3155,61.57385,51.0381
1729030,369.9029,246.9309,61.60069,50.99449
1729064,370.2287,246.7134,61.62178,50.96979
1729099,370.4674,246.4799,61.63723,50.94325
1729128,370.6654,246.298,61.65002,50.92256
1729164,370.9685,246.1113,61.66959,50.90129
1729189,371.3241,246.0276,61.69252,50.89175
1729211,371.7635,246.0143,61.72079,50.89024
1729240,372.3694,246.1119,61.75971,50.90136
1729271,372.9316,246.025,61.79573,50.89146
1729304,373.2848,245.9391,61.81831,50.88166
1729340,373.537,245.719,61.83442,50.85655
1729387,373.5959,245.5919,61.83817,50.84204
1729406,373.591,245.2338,61.83786,50.80109
1729425,373.5443,245.178,61.83488,50.79471
1729443,373.5656,245.064,61.83624,50.78166
1729464,373.637,244.7305,61.84079,50.74343
1729484,373.7709,244.5014,61.84933,50.71713
1729505,374.0182,244.3809,61.8651,50.70329
1729524,374.2641,244.2878,61.88076,50.69259
1729539,374.543,244.2578,61.89849,50.68915
1729559,374.8458,244.3454,61.91773,50.69921
1729581,375.1419,244.4292,61.93651,50.70884
1729601,375.3733,244.6837,61.95118,50.73807
1729628,375.6956,244.871,61.97158,50.75954
1729662,376.1381,244.82,61.99955,50.7537
1729695,376.6916,244.838,62.03446,50.75575
1729728,377.0698,244.6953,62.05826,50.7394
1729760,377.4768,244.3365,62.08384,50.69818
1729790,377.7211,244.006,62.09917,50.66017
1729824,377.6856,243.7908,62.09695,50.63538
1729859,377.5027,243.7759,62.08547,50.63367
1729893,377.3407,243.8848,62.07529,50.64622
1729919,377.1949,243.964,62.06613,50.65533
1729951,377.0413,244.022,62.05647,50.66201
1729986,376.9087,244.252,62.04812,50.68847
1730020,376.7451,244.471,62.03782,50.71364
1730048,376.6978,244.8032,62.03484,50.75177
1730086,377.0857,245.5737,62.05926,50.83996
1730114,377.7582,246.3243,62.1015,50.92555
1730147,378.5942,247.0901,62.15384,51.01255
1730186,379.318,247.5446,62.19902,51.06404
1730213,379.8407,247.6904,62.23156,51.08052
1730245,380.1533,247.8689,62.25098,51.10069
1730283,380.3721,247.7418,62.26456,51.08633
1730318,380.414,247.5655,62.26717,51.06639
