Time Stamp(ms),Intersection,,Angle,
,x,y,x,y
2017376,315.3353,242.5408,57.61527,50.49089
2017391,314.7148,242.7808,57.5642,50.5187
2017409,313.9203,242.5564,57.49861,50.4927
2017427,313.4596,242.1339,57.46046,50.44366
2017443,313.117,241.4954,57.43205,50.36935
2017459,312.8623,240.926,57.4109,50.30291
2017479,312.5594,240.3333,57.3857,50.23352
2017491,312.2176,239.6501,57.35723,50.15331
2017511,311.9042,239.0367,57.33109,50.08105
2017527,311.5958,238.4057,57.30534,50.0065
2017543,311.3051,238.0393,57.28102,49.96311
2017560,310.9897,237.9595,57.2546,49.95364
2017576,310.458,238.4582,57.20998,50.01271
2017594,309.9345,238.9379,57.16594,50.0694
2017610,309.1111,239.7503,57.09647,50.16509
2017628,308.3085,240.434,57.02849,50.24533
2017644,307.2496,241.2518,56.93843,50.34095
2017661,306.0073,242.1286,56.83221,50.44305
2017676,304.8638,242.7987,56.73389,50.52077
2017691,303.5314,243.4244,56.61869,50.59312
2017710,302.4313,243.6886,56.52305,50.6236
2017726,301.2905,243.6929,56.42335,50.6241
2017744,300.2871,243.7245,56.33522,50.62774
2017759,299.3478,243.7084,56.25236,50.62589
2017777,298.0206,243.6955,56.13465,50.6244
2017796,296.5705,243.7862,56.00522,50.63485
2017811,294.9034,243.9948,55.85535,50.65888
2017827,292.6393,244.4254,55.64993,50.7084
2017845,290.3303,244.9843,55.43818,50.77253
2017860,287.7538,245.53,55.1992,50.83497
2017876,284.2354,246.4491,54.86816,50.93975
2017897,281.0282,247.476,54.56159,51.05627
2017911,277.7908,248.5191,54.24739,51.17403
2017928,274.2375,249.9656,53.89692,51.33635
2017946,270.6233,251.6579,53.53431,51.52479
2017963,267.5469,253.1178,53.22069,51.68612
2017979,263.9216,254.722,52.84512,51.86207
2017998,261.2551,256.0883,52.56467,52.01086
2018013,257.9334,257.4585,52.21022,52.15907
2018030,255.1154,258.4882,51.90501,52.26981
2018046,251.8161,259.5381,51.54233,52.38217
2018064,248.9622,260.286,51.22387,52.46184
2018080,246.3096,260.9244,50.92388,52.52964
2018097,243.6271,261.4585,50.61652,52.58619
2018113,240.8558,262.03,50.2947,52.64654
2018131,238.6438,262.3514,50.03467,52.68041
2018146,236.3077,262.653,49.75695,52.71214
2018162,234.1727,262.9855,49.50034,52.74707
2018180,232.2744,263.494,49.26989,52.80038
2018198,230.5579,263.9325,49.05964,52.84626
2018217,228.7041,264.4074,48.83055,52.89583
2018229,227.1441,264.7383,48.63614,52.9303
2018246,225.5615,265.1038,48.43736,52.96832
2018263,224.0859,265.5613,48.25061,53.0158
2018282,222.882,266.0312,48.09723,53.06446
2018299,221.9692,266.5257,47.98032,53.11556
2018312,221.0965,267.0071,47.86807,53.16519
2018330,220.2671,267.418,47.76091,53.20745
2018347,219.4816,267.6856,47.65903,53.23494
2018363,218.8181,267.9286,47.57265,53.25985
2018380,218.0707,268.0721,47.47501,53.27456
2018398,217.3564,268.213,47.38137,53.28899
2018413,216.5722,268.2769,47.27816,53.29554
2018431,215.7821,268.3325,47.17377,53.30122
2018451,215.3562,268.2813,47.11733,53.29597
2018465,214.8166,268.3152,47.04564,53.29945
2018482,214.4256,268.3319,46.99359,53.30116
2018497,214.1153,268.3379,46.95219,53.30177
2018514,213.7473,268.3247,46.90302,53.30042
2018530,213.4384,268.2151,46.86169,53.2892
2018547,213.1439,268.1162,46.82221,53.27908
2018565,212.9278,268.0241,46.79321,53.26965
2018580,212.8625,267.7853,46.78444,53.24516
2018598,212.8309,267.6228,46.78019,53.22848
2018615,212.7729,267.4854,46.7724,53.21437
2018630,212.8173,267.2114,46.77837,53.18621
2018648,212.8719,267.0301,46.7857,53.16755
2018667,212.8861,266.8348,46.78761,53.14744
2018681,212.8992,266.6479,46.78937,53.12817
2018699,212.9027,266.6236,46.78984,53.12566
2018713,212.8953,266.626,46.78885,53.1259
2018731,212.8227,266.7109,46.77909,53.13466
2018748,212.8184,266.8185,46.77852,53.14576
2018765,212.8663,266.9773,46.78496,53.16212
2018781,212.8767,267.0603,46.78635,53.17066
2018797,212.8747,267.3294,46.78608,53.19835
2018814,212.8925,267.6087,46.78847,53.22704
2018831,212.9058,267.8123,46.79026,53.24793
2018848,212.9773,267.9252,46.79985,53.25951
2018863,213.0612,267.9757,46.81112,53.26468
2018881,213.1018,268.1064,46.81657,53.27807
2018899,213.1163,268.2176,46.81851,53.28946
2018913,213.0457,268.4006,46.80903,53.30818
2018931,212.9568,268.5724,46.7971,53.32576
2018948,212.9108,268.6265,46.79092,53.33127
2018964,212.7443,268.7594,46.76855,53.34485
2018981,212.5298,268.7767,46.73972,53.34662
2018998,212.3961,268.8556,46.72172,53.35467
2019014,212.224,268.9185,46.69853,53.36108
2019032,212.114,268.8956,46.68372,53.35876
2019047,211.971,268.961,46.66443,53.36543
2019064,211.7991,268.8959,46.64122,53.35878
2019083,211.6528,268.9142,46.62145,53.36066
2019098,211.4754,268.9861,46.59748,53.36798
2019115,211.3232,268.993,46.57689,53.36869
2019133,211.1933,269.0104,46.55928,53.37047
2019148,211.0779,268.9431,46.54365,53.3636
2019164,210.9788,268.9393,46.53023,53.36322
2019181,211.3818,269.0036,46.58481,53.36977
2019199,211.4036,268.9647,46.58776,53.3658
2019216,211.4013,269.003,46.58745,53.36971
2019233,211.389,269.0742,46.58579,53.37697
2019248,211.3874,269.0392,46.58557,53.37341
2019266,211.342,268.9921,46.57943,53.3686
2019282,211.2747,268.9192,46.57032,53.36116
2019298,211.2207,268.9211,46.563,53.36136
2019315,211.0999,268.776,46.54663,53.34655
2019331,211.0088,268.7455,46.53429,53.34344
2019350,210.9033,268.6576,46.51999,53.33446
2019368,210.862,268.6244,46.51438,53.33106
2019384,210.7997,268.5833,46.50593,53.32686
2019400,210.7515,268.5996,46.49939,53.32853
2019416,210.8041,268.6184,46.50653,53.33046
2019441,210.891,268.7556,46.51831,53.34446
2019452,211.0139,268.8441,46.53498,53.35349
2019466,211.2241,268.8442,46.56347,53.3535
2019484,211.489,268.8227,46.59931,53.35131
2019501,211.8258,268.7909,46.64482,53.34806
2019518,212.1956,268.7501,46.69471,53.3439
2019533,212.5928,268.7336,46.7482,53.34222
2019550,212.9951,268.8916,46.80225,53.35835
2019567,213.399,269.0268,46.85641,53.37214
2019583,213.8379,269.4364,46.91514,53.41386
2019600,214.2511,269.8306,46.97031,53.45394
2019617,214.6817,270.3926,47.02769,53.51095
2019634,215.1744,271.0161,47.0932,53.57403
2019651,215.6632,271.6004,47.15803,53.63296
2019667,216.0816,272.2622,47.21339,53.69952
2019684,216.3741,272.4905,47.25202,53.72243
2019702,216.5973,272.4548,47.28146,53.71885
2019718,216.9628,272.4492,47.32961,53.71828
2019735,217.3727,272.8931,47.3835,53.76277
2019752,217.7282,273.7613,47.43015,53.8495
2019768,217.9606,274.6859,47.4606,53.94147
2019786,218.0932,275.7917,47.47795,54.05095
2019801,218.1292,276.7037,47.48267,54.1408
2019819,218.0885,277.4755,47.47734,54.21653
2019834,218.0476,278.3965,47.472,54.30655
2019854,218.0178,279.1395,47.46809,54.37887
2019870,217.9229,279.8531,47.45567,54.4481
2019885,217.8874,280.6998,47.45102,54.52994
2019903,217.9397,281.3786,47.45786,54.59532
2019921,218.0971,282.2911,47.47847,54.68287
2019935,218.3323,283.4176,47.50923,54.79044
2019950,218.7258,284.7061,47.56061,54.91277
2019969,219.4439,286.2948,47.65413,55.06259
2019984,220.2732,287.9347,47.7617,55.21608
2020001,221.1669,289.2425,47.87713,55.33764
2020018,222.4329,290.3415,48.03978,55.43922
2020034,223.6592,291.834,48.19635,55.57634
2020052,224.9263,293.338,48.35714,55.71355
2020067,226.4339,295.5165,48.54713,55.9106
2020085,227.8495,297.6847,48.72423,56.10475
2020102,229.4549,299.7762,48.92359,56.2902
2020118,231.1586,301.7735,49.13342,56.46563
2020135,232.9203,303.615,49.34855,56.62595
2020150,234.9534,305.5636,49.59449,56.79412
2020168,236.8483,307.4942,49.8215,56.95927
2020183,238.8669,309.6203,50.06102,57.13947
2020201,240.6989,311.2684,50.27634,57.27795
2020218,242.3624,312.8486,50.4702,57.40975
2020233,244.1629,314.4489,50.67823,57.54228
2020250,245.7282,316.0028,50.8576,57.67004
2020266,247.3375,317.7055,51.04059,57.80902
2020284,248.7519,319.1674,51.20023,57.92749
2020301,249.9622,320.3498,51.33597,58.02274
2020317,250.9249,321.409,51.44336,58.10764
2020333,251.9141,322.4494,51.55318,58.19064
2020350,252.7644,323.2781,51.64716,58.25648
2020369,253.4583,323.8383,51.72358,58.30085
2020385,254.1909,324.1815,51.80397,58.32797
2020404,254.8692,324.5829,51.87815,58.35965
2020419,255.3851,324.7217,51.9344,58.37058
2020435,255.9812,324.8925,51.99923,58.38404
2020454,256.4312,324.9424,52.04804,58.38796
2020469,256.8827,325.0564,52.0969,58.39693
2020485,257.2201,325.073,52.13335,58.39824
2020502,257.4474,325.1656,52.15787,58.40552
2020519,257.7189,325.1524,52.18713,58.40449
2020538,257.8752,325.2414,52.20396,58.41148
2020552,258.094,325.2783,52.22749,58.41438
2020571,258.32,325.3483,52.25176,58.41988
2020589,258.4657,325.42,52.2674,58.42551
2020602,258.6446,325.4167,52.28659,58.42525
2020618,258.8605,325.2908,52.30972,58.41537
2020634,259.0701,325.3262,52.33216,58.41815
2020653,259.2661,325.2362,52.3531,58.41107
2020668,259.5126,325.1393,52.37944,58.40346
2020685,259.6995,325.0661,52.39938,58.3977
2020703,259.9585,325.0208,52.42699,58.39413
2020718,260.1719,324.9945,52.4497,58.39207
2020736,260.444,324.8808,52.47865,58.38311
2020753,260.8493,324.567,52.52168,58.35839
2020770,261.3158,324.2175,52.57109,58.33082
2020786,261.9287,323.8081,52.63586,58.29846
2020803,262.9251,323.1686,52.74074,58.2478
2020821,263.9604,322.5116,52.84917,58.19559
2020836,265.3663,321.7557,52.99557,58.13534
2020852,267.5362,320.8872,53.2196,58.06587
2020869,270.2345,320.1772,53.49493,58.00887
2020886,273.7562,319.4604,53.84899,57.95114
2020905,276.2803,318.9644,54.09913,57.91109
2020920,279.9971,318.5091,54.46204,57.87424
2020937,283.4054,318.1913,54.78927,57.84848
2020952,286.6363,317.7935,55.09465,57.81617
2020971,290.5141,317.4115,55.45513,57.7851
2020990,293.9405,317.1449,55.76824,57.76338
2021008,296.9508,316.8508,56.03925,57.73939
2021020,301.2286,316.5402,56.41793,57.71402
2021040,304.2476,316.2476,56.68071,57.69009
2021053,307.8824,315.8158,56.9923,57.65472
2021073,311.1526,315.3969,57.26825,57.62033
2021089,314.839,314.7097,57.57444,57.56378
2021106,318.627,313.8328,57.88379,57.49137
2021124,321.9842,313.1398,58.15358,57.43394
2021142,325.8732,311.9552,58.46107,57.33535
2021156,329.7581,310.7738,58.76297,57.2365
2021173,333.9802,309.4741,59.08523,57.12713
2021191,338.1646,308.0895,59.39874,57.0099
2021205,342.4128,306.7876,59.71121,56.89899
2021224,346.232,305.629,59.98724,56.79974
2021241,350.0524,304.3203,60.25881,56.68699
2021258,353.4153,303.1587,60.4942,56.58635
2021273,357.1426,301.8558,60.75116,56.47282
2021289,360.2971,300.7302,60.96545,56.37419
2021307,364.0304,299.3322,61.2154,56.25098
2021326,366.6602,298.347,61.38912,56.16367
2021340,369.2247,297.3241,61.55667,56.07259
2021357,371.6438,296.2812,61.7131,55.9793
2021372,373.7599,295.1656,61.84863,55.879
2021389,375.8711,294.0253,61.98267,55.77593
2021406,377.774,292.8311,62.10249,55.66741
2021424,379.44,291.8895,62.20662,55.58142
2021440,381.0108,290.9742,62.30415,55.49746
2021456,382.8101,289.9514,62.41508,55.40322
2021475,384.3795,289.1088,62.51118,55.32525
2021490,385.8202,288.3525,62.59885,55.255
2021507,387.1673,287.5887,62.68037,55.18379
2021525,388.3565,286.9808,62.75195,55.12695
2021542,389.6353,286.3948,62.82854,55.07199
2021559,391.1875,285.7259,62.92098,55.00907
2021583,392.535,285.1652,63.00076,54.95618
2021593,393.6548,284.8082,63.06673,54.92244
2021606,394.8793,284.3011,63.13852,54.87439
2021626,396.0858,283.8997,63.20892,54.83629
2021642,397.1146,283.4543,63.26867,54.79392
2021659,397.9543,283.1226,63.31726,54.76232
2021675,398.9097,282.6583,63.37234,54.71799
2021691,399.6992,282.3777,63.41771,54.69115
2021708,400.3954,281.9792,63.45759,54.65298
2021725,400.9248,281.5887,63.48784,54.61551
2021740,401.4933,281.1292,63.52025,54.57132
2021758,401.9815,280.5662,63.54803,54.51704
2021774,402.4125,280.087,63.57251,54.47074
2021790,402.7587,279.5161,63.59214,54.41543
2021810,402.9754,278.956,63.60442,54.36103
2021829,403.2149,278.4487,63.61797,54.31163
2021843,403.3241,278.0641,63.62415,54.27409
2021857,403.3982,277.7126,63.62833,54.23974
2021872,403.4224,277.3105,63.6297,54.20036
2021889,403.2139,276.9001,63.61792,54.1601
2021907,402.9886,276.4119,63.60516,54.11209
2021926,402.6106,275.7799,63.58375,54.04978
2021943,402.2529,275.1974,63.56345,53.99219
2021959,401.7445,274.546,63.53456,53.92758
2021975,401.0641,273.7634,63.49579,53.84971
2021990,400.0532,272.7972,63.438,53.75317
2022009,399.0111,271.7819,63.37818,53.65123
2022024,397.7832,270.6873,63.30737,53.54079
2022041,396.6964,269.6818,63.24441,53.43882
2022058,395.514,268.6895,63.17559,53.33771
2022075,394.3931,267.6976,63.11005,53.23616
2022092,393.3291,266.6664,63.04757,53.13008
2022109,392.2937,265.637,62.98651,53.02365
2022126,391.1839,264.5142,62.92077,52.90696
2022144,390.2935,263.6659,62.86782,52.81838
2022159,389.1099,262.619,62.79713,52.70857
2022176,387.8216,261.5553,62.7198,52.59643
2022191,386.3546,260.3361,62.63124,52.46717
2022208,384.4549,259.0036,62.51578,52.32504
2022224,382.5272,257.7118,62.39769,52.18636
2022241,380.0312,256.3004,62.2434,52.03386
2022259,377.4734,255.0499,62.08363,51.89786
2022274,374.4089,253.741,61.88997,51.75464
2022291,370.6268,252.3867,61.64753,51.60547
2022309,367.3642,251.2136,61.4353,51.47546
2022325,363.7508,250.0581,61.19682,51.34669
2022342,360.4924,249.0279,60.97863,51.23125
2022359,357.4817,248.1278,60.77433,51.12992
2022374,354.1255,247.1458,60.54348,51.01887
2022392,351.0419,246.2279,60.32843,50.91457
2022409,348.1095,245.4202,60.12126,50.82242
2022425,345.1958,244.7988,59.9128,50.75126
2022442,342.3353,244.3213,59.70556,50.69644
2022460,339.4818,243.9415,59.49625,50.65274
2022477,336.9567,243.5007,59.30883,50.60192
2022491,334.436,243.0114,59.11966,50.54539
2022507,332.1399,242.6062,58.9455,50.49847
2022525,330.0774,242.1037,58.78755,50.44015
2022541,328.1104,241.8069,58.63556,50.40564
2022557,325.9808,241.5294,58.46951,50.37332
2022575,323.9375,241.2336,58.30869,50.33883
2022591,321.9745,241.191,58.1528,50.33386
2022607,319.9153,241.0821,57.9878,50.32114
2022624,317.9467,241.0567,57.82862,50.31817
2022641,315.98,241.1922,57.66818,50.334
2022658,314.2263,241.1586,57.52391,50.33008
2022673,312.2761,240.9489,57.36211,50.30558
2022691,310.7253,240.7882,57.23242,50.28679
2022707,309.2328,240.6369,57.10675,50.26909
2022725,307.6163,240.5137,56.96966,50.25467
2022743,306.3085,240.5596,56.85802,50.26004
2022758,304.8785,240.6612,56.73516,50.27194
2022774,303.1559,241.0639,56.58611,50.31901
2022791,301.4693,241.5456,56.43901,50.37521
2022808,299.5102,242.138,56.26671,50.44414
2022827,297.8826,242.3231,56.12237,50.46563
2022848,296.5655,242.3521,56.00477,50.469
2022863,295.3076,242.2967,55.89179,50.46257
2022879,294.1597,242.1945,55.78811,50.4507
2022894,293.1747,241.9895,55.69869,50.42687
2022912,292.1134,241.936,55.6019,50.42066
2022929,291.4044,241.8664,55.53696,50.41256
2022945,290.6811,241.7457,55.4705,50.39852
2022965,290.0232,241.6396,55.40985,50.38616
2022980,289.5121,241.6309,55.3626,50.38515
2022997,289.2003,241.6014,55.33372,50.38171
2023013,288.7111,241.5884,55.28834,50.3802
2023030,288.3253,241.624,55.25246,50.38434
2023047,288.0289,241.5598,55.22486,50.37686
2023063,287.8557,241.2983,55.20871,50.34637
2023079,287.5689,241.126,55.18195,50.32626
2023096,287.3884,240.6569,55.16508,50.27143
2023113,287.1664,240.1055,55.14432,50.20682
2023131,286.9318,239.6442,55.12235,50.15262
2023146,286.7594,238.7635,55.1062,50.04881
2023165,286.5376,237.9135,55.0854,49.94819
2023181,286.2563,236.7399,55.05898,49.80858
2023196,285.8131,235.0372,55.01728,49.60456
2023211,285.2254,233.1788,54.96186,49.37994
2023230,284.5733,231.1135,54.9002,49.12789
2023246,283.5954,228.4107,54.80736,48.7941
2023265,282.7209,226.1142,54.72397,48.50695
2023282,281.6904,223.5222,54.62527,48.17892
2023298,280.5186,220.5983,54.51245,47.80376
2023314,278.7644,216.2528,54.34239,47.236
2023332,276.8152,212.1293,54.15175,46.68578
2023347,274.7362,208.4785,53.94647,46.18907
2023363,272.4298,205.0446,53.71634,45.71355
2023379,269.5885,201.7635,53.42934,45.2515
2023396,267.0534,199.0142,53.16995,44.85845
2023413,264.6414,197.1085,52.92022,44.58282
2023429,262.6315,195.5848,52.70988,44.36054
2023445,260.9645,194.1051,52.53389,44.14305
2023466,259.696,192.2529,52.39901,43.86855
2023482,258.6609,190.4501,52.28834,43.5989
2023497,257.9468,188.888,52.21166,43.36329
2023511,257.3013,186.9933,52.14212,43.07503
2023530,256.9299,185.5988,52.10201,42.86113
2023546,256.885,184.4192,52.09716,42.67902
2023563,256.9742,183.588,52.1068,42.55006
2023579,257.199,182.8086,52.13108,42.42865
2023596,257.8049,182.4092,52.19639,42.36626
2023614,258.3484,181.9246,52.25481,42.29038
2023631,259.1268,181.8542,52.33822,42.27934
2023648,259.8726,181.7575,52.41784,42.26417
2023666,260.4511,181.8059,52.4794,42.27177
2023680,260.8325,181.7944,52.51989,42.26996
2023697,261.0899,181.7419,52.54717,42.26172
2023715,261.0599,181.7696,52.544,42.26607
2023731,260.9264,181.6222,52.52985,42.24294
2023747,260.6846,181.4116,52.5042,42.20986
2023765,260.2645,181.0506,52.45956,42.15306
2023780,259.6104,180.4769,52.38987,42.0626
2023797,258.9934,179.9126,52.32395,41.97338
2023812,258.2646,179.2734,52.24582,41.872
2023833,257.7232,178.8327,52.1876,41.80193
2023847,257.0405,178.383,52.11396,41.73025
2023864,256.4454,177.9448,52.04958,41.66026
2023883,256.0223,177.7027,52.00369,41.62152
2023898,255.7289,177.5392,51.97181,41.59534
2023914,255.4639,177.4628,51.94298,41.5831
2023933,255.3103,177.587,51.92626,41.603
2023948,255.2233,177.6718,51.91678,41.61658
2023966,255.0923,177.7285,51.90249,41.62565
2023985,255.2247,177.9668,51.91692,41.66377
2023999,255.2583,178.1052,51.92059,41.6859
2024020,255.2963,178.4141,51.92473,41.73521
2024031,255.3907,178.6615,51.93501,41.77465
2024048,255.4589,178.8153,51.94244,41.79915
2024064,255.5375,178.8236,51.95099,41.80047
2024080,255.5771,178.8986,51.9553,41.8124
2024096,255.621,178.9314,51.96008,41.81763
2024112,255.6716,179.0471,51.96559,41.83603
2024128,255.7708,179.2541,51.97636,41.86893
2024149,256.18,179.445,52.0208,41.89924
2024163,257.5398,179.9065,52.16784,41.97241
2024180,259.4277,180.686,52.37037,42.0956
2024196,262.6054,181.7001,52.70714,42.25516
2024214,267.5935,183.4452,53.22548,42.52785
2024233,272.1815,184.8748,53.69141,42.74949
2024246,276.8327,186.1018,54.15347,42.93847
2024262,281.6762,187.1783,54.62391,43.10329
2024279,285.6881,188.1704,55.00552,43.25444
2024298,289.526,189.0573,55.36389,43.3889
2024315,292.6982,189.8398,55.6553,43.50706
2024335,294.7025,190.3587,55.8372,43.58517
2024346,296.9226,190.9448,56.03673,43.67313
2024366,298.9366,191.5547,56.21597,43.7644
2024383,300.5487,192.142,56.35824,43.85203
2024398,302.3248,192.8936,56.51376,43.96378
2024415,304.195,193.7194,56.67616,44.08609
2024434,306.1286,194.2508,56.84261,44.16454
2024457,308.227,194.6223,57.02157,44.21925
2024471,309.959,194.8111,57.168,44.24701
2024483,311.6985,195.1097,57.31392,44.29089
2024498,313.4936,195.4169,57.46328,44.33595
2024516,315.6281,196.0144,57.63932,44.42337
2024530,317.3066,196.4142,57.77656,44.48174
2024549,319.2571,196.9255,57.93474,44.55621
2024566,321.0293,197.1806,58.07726,44.5933
2024583,322.5768,197.4392,58.20078,44.63084
2024599,323.7301,197.675,58.29229,44.66503
2024616,325.0906,197.9458,58.39962,44.70424
2024632,326.3205,198.0913,58.4961,44.7253
2024650,327.183,198.3207,58.56345,44.75844
2024664,328.022,198.4102,58.6287,44.77137
2024684,328.7035,198.6165,58.68153,44.80114
2024706,329.1628,198.7943,58.71704,44.82678
2024725,329.325,198.9747,58.72957,44.85276
2024736,329.3991,199.1207,58.73529,44.87377
2024749,329.5214,199.2432,58.74473,44.89139
2024767,329.4901,199.2933,58.74231,44.89859
2024785,329.5164,199.4436,58.74434,44.92019
2024802,329.3824,199.588,58.734,44.94092
2024819,329.4223,199.705,58.73708,44.95771
2024835,329.3642,199.7693,58.7326,44.96694
2024851,329.2999,199.8911,58.72763,44.98439
2024869,329.3051,199.8993,58.72803,44.98558
2024885,329.1983,199.979,58.71979,44.997
2024901,329.1091,199.9744,58.7129,44.99633
2024918,329.0231,200.0563,58.70626,45.00806
2024931,328.9247,200.2385,58.69864,45.03414
2024950,328.7726,200.5014,58.68688,45.07173
2024966,328.6573,200.6383,58.67796,45.09128
2024999,328.2792,201.2993,58.64866,45.18551
2025017,327.9979,201.8199,58.62683,45.2595
2025031,327.7576,202.2506,58.60816,45.32057
