Time Stamp(ms),Intersection,,Angle,
,x,y,x,y
1164247,311.4445,243.4743,57.29268,50.59888
1164264,311.4743,243.5097,57.29517,50.60297
1164283,311.5559,243.5198,57.30199,50.60413
1164299,311.6959,243.5723,57.3137,50.61019
1164315,311.9984,243.4345,57.33895,50.59428
1164330,312.2172,243.0085,57.3572,50.54505
1164347,312.3929,242.3385,57.37184,50.46742
1164364,312.5351,241.7634,57.38368,50.40057
1164381,312.6864,241.003,57.39626,50.3119
1164400,312.89,240.4233,57.4132,50.24407
1164417,313.147,239.8321,57.43454,50.17471
1164436,313.4162,239.4632,57.45687,50.13132
1164451,313.6485,239.3176,57.47612,50.11417
1164468,313.6479,239.6475,57.47606,50.153
1164483,313.5615,239.9566,57.46891,50.18933
1164501,313.291,240.5117,57.44649,50.25444
1164519,312.994,241.0312,57.42184,50.3152
1164535,312.6174,241.467,57.39053,50.36605
1164550,312.1663,241.8779,57.35295,50.4139
1164570,311.659,242.0192,57.31062,50.43034
1164584,311.1822,241.8652,57.27073,50.41242
1164601,310.7149,241.4247,57.23155,50.36112
1164619,310.2349,240.9715,57.19123,50.30822
1164635,309.7215,240.5224,57.14799,50.25568
1164651,309.2465,240.1106,57.10791,50.20741
1164669,308.8181,239.4693,57.07168,50.13204
1164685,308.2366,238.931,57.02239,50.06859
1164705,307.7578,238.6613,56.9817,50.03674
1164718,306.9504,238.8481,56.9129,50.0588
1164733,306.0025,238.9802,56.83179,50.0744
1164750,304.8048,239.0317,56.72881,50.08047
1164766,303.1807,238.8643,56.58826,50.06072
1164784,301.169,238.5196,56.4127,50.01999
1164800,299.0204,238.2292,56.22338,49.98561
1164818,297.1006,237.9442,56.05264,49.95183
1164834,294.7259,237.5452,55.83932,49.90446
1164850,292.2888,237.2528,55.61792,49.86969
1164868,290.2253,236.9395,55.4285,49.83237
1164889,287.867,236.2046,55.20977,49.74462
1164901,285.569,235.4958,54.99429,49.65968
1164918,283.6086,235.0249,54.80862,49.60309
1164934,281.3606,234.6714,54.59358,49.56053
1164951,279.3699,234.4707,54.40125,49.53632
1164971,277.3771,234.3921,54.20688,49.52684
1164987,275.3881,234.2518,54.01105,49.5099
1165002,273.3159,234.4424,53.80506,49.5329
1165019,271.272,234.5959,53.59986,49.55143
1165036,268.878,234.7939,53.35696,49.57528
1165054,266.4079,234.982,53.10339,49.59792
1165070,264.1232,235.1243,52.86618,49.61505
1165087,262.0299,235.2295,52.64653,49.6277
1165103,259.8781,235.3873,52.41842,49.64665
1165119,257.8912,235.4412,52.20568,49.65313
1165138,255.9324,235.5056,51.99393,49.66087
1165153,254.0492,235.5752,51.78844,49.66922
1165169,252.0888,235.6166,51.57253,49.67418
1165187,250.3233,235.6089,51.37631,49.67326
1165203,248.2511,235.5281,51.14384,49.66356
1165224,246.606,235.4877,50.95759,49.65871
1165237,244.8293,235.624,50.75476,49.67508
1165253,243.0651,235.7767,50.5516,49.69339
1165271,241.3007,236.086,50.34666,49.73044
1165287,239.6572,236.208,50.15415,49.74503
1165305,238.1834,236.4284,49.98019,49.77138
1165321,237.1255,236.4826,49.85453,49.77785
1165338,236.0711,236.6352,49.72865,49.79608
1165354,235.2739,236.86,49.63303,49.8229
1165371,234.5314,236.9576,49.54365,49.83454
1165388,234.0089,237.0021,49.48054,49.83984
1165405,233.7611,236.97,49.45055,49.83602
1165421,233.5252,237.0111,49.42198,49.84091
1165438,233.4297,236.9598,49.4104,49.8348
1165455,233.3849,236.8894,49.40496,49.8264
1165473,233.4442,236.8131,49.41215,49.81731
1165488,233.6722,236.865,49.43979,49.82349
1165507,233.7959,236.9904,49.45477,49.83845
1165523,233.8963,237.0659,49.46691,49.84744
1165539,234.031,237.102,49.48322,49.85174
1165555,234.0994,237.05,49.49147,49.84554
1165571,234.1967,237.1103,49.50323,49.85273
1165588,234.268,237.0806,49.51185,49.84919
1165605,234.4074,236.9709,49.52868,49.83612
1165622,234.6631,236.8945,49.55952,49.82701
1165639,234.9599,236.8458,49.59527,49.82121
1165655,235.5078,236.8385,49.66113,49.82034
1165673,236.2606,236.8518,49.75132,49.82193
1165689,237.2347,236.7774,49.86754,49.81305
1165706,238.7802,236.7747,50.05079,49.81273
1165722,240.6739,236.7197,50.27342,49.80617
1165740,242.8869,236.7571,50.53099,49.81063
1165756,245.8341,236.7977,50.86969,49.81548
1165773,248.8102,236.7974,51.20679,49.81544
1165789,251.3403,236.8202,51.48955,49.81816
1165808,253.6926,236.7927,51.74932,49.81488
1165823,255.9604,236.9542,51.99696,49.83413
1165840,257.7233,237.0536,52.1876,49.84597
1165859,259.1104,237.1397,52.33646,49.85623
1165872,260.2282,237.4068,52.4557,49.88802
1165889,261.2373,237.6284,52.56279,49.91434
1165906,262.188,237.6706,52.66319,49.91936
1165923,263.1969,237.69,52.76926,49.92166
1165940,264.3424,237.7883,52.88905,49.93334
1165956,265.8224,238.1817,53.04285,49.97998
1165973,267.4427,238.465,53.20999,50.01352
1165993,269.4445,238.7148,53.41468,50.04305
1166009,271.4561,238.7811,53.61842,50.05089
1166024,273.9289,238.8302,53.8662,50.05669
1166040,277.1377,238.8216,54.18341,50.05568
1166056,280.3168,238.7824,54.49296,50.05104
1166073,283.8277,238.768,54.82946,50.04934
1166091,287.8726,238.6228,55.21029,50.03219
1166107,291.7738,238.6428,55.57082,50.03455
1166125,295.972,238.6715,55.95155,50.03794
1166142,299.9332,238.7397,56.30404,50.046
1166159,303.3966,238.8296,56.607,50.05661
1166175,307.2708,238.8845,56.94023,50.0631
1166191,310.8625,238.9691,57.24394,50.07308
1166208,314.4075,239.1871,57.53886,50.0988
1166226,317.6886,239.4405,57.80764,50.12865
1166242,321.2464,239.9978,58.09464,50.19416
1166267,324.2077,240.3076,58.33004,50.23051
1166280,327.0495,240.6838,58.55304,50.27458
1166295,330.4977,241.0271,58.81986,50.31471
1166314,333.0322,241.4021,59.01339,50.35848
1166326,335.5786,241.6917,59.20567,50.39222
1166346,338.2722,241.9457,59.40673,50.42178
1166373,340.7254,242.1272,59.5878,50.44288
1166381,342.2014,242.2023,59.6958,50.4516
1166394,344.0433,242.3768,59.82961,50.47186
1166413,345.8363,242.5097,59.95885,50.48728
1166429,347.4743,242.6479,60.07604,50.5033
1166446,349.0158,242.9546,60.18557,50.53882
1166463,350.2482,243.2542,60.27261,50.57346
1166479,351.3788,243.6611,60.35206,50.62043
1166495,352.7195,244.0037,60.44577,50.6599
1166519,353.4028,244.1191,60.49333,50.67319
1166530,354.1942,244.2789,60.54823,50.69157
1166554,355.0833,244.5144,60.6097,50.71863
1166573,355.7119,244.7281,60.65301,50.74316
1166582,356.1489,244.7977,60.68305,50.75113
1166595,356.4981,244.9035,60.70702,50.76327
1166609,356.9729,244.9034,60.73955,50.76325
1166629,357.3177,244.981,60.76313,50.77214
1166647,357.6714,244.9703,60.78728,50.77093
1166663,357.9896,244.9491,60.80898,50.76849
1166680,358.2245,245.0004,60.82498,50.77437
1166699,358.4736,245.026,60.84193,50.77731
1166713,358.6624,245.165,60.85476,50.79322
1166731,358.8777,245.2826,60.86939,50.80668
1166747,359.051,245.3853,60.88115,50.81842
1166764,359.1378,245.4977,60.88703,50.83127
1166779,359.2145,245.5016,60.89223,50.83173
1166796,359.2364,245.5464,60.89372,50.83683
1166819,359.2706,245.5848,60.89604,50.84122
1166830,359.253,245.5918,60.89484,50.84203
1166845,359.298,245.5516,60.8979,50.83743
1166862,359.2353,245.4302,60.89364,50.82355
1166879,359.1667,245.2975,60.88899,50.80839
1166896,359.1022,245.2066,60.88462,50.79798
1166913,359.0428,245.1391,60.88059,50.79025
1166930,358.9556,245.0917,60.87468,50.78483
1166947,358.8236,245.0126,60.86572,50.77578
1166964,358.7542,244.9789,60.861,50.77191
1166980,358.8858,245.3797,60.86993,50.81779
1167001,358.8927,245.4024,60.87041,50.82038
1167016,358.8718,245.4987,60.86899,50.83139
1167033,358.8564,245.5056,60.86794,50.83218
1167050,358.8264,245.4515,60.8659,50.826
1167064,358.7939,245.3943,60.8637,50.81946
1167081,358.7666,245.325,60.86184,50.81153
1167099,358.7393,245.2356,60.85999,50.8013
1167117,358.6668,245.0916,60.85506,50.78482
1167136,358.6664,245.0058,60.85503,50.77499
1167148,358.7445,244.9514,60.86034,50.76876
1167165,358.7762,244.8796,60.86249,50.76053
1167181,358.8336,244.826,60.86639,50.75438
1167199,358.9098,244.6711,60.87156,50.73662
1167215,358.9275,244.4702,60.87277,50.71355
1167232,358.9341,244.2644,60.87322,50.6899
1167250,358.8463,244.066,60.86726,50.66708
1167266,358.6853,243.7669,60.85632,50.63263
1167284,358.5637,243.436,60.84806,50.59446
1167300,358.3952,243.0491,60.83659,50.54976
1167318,358.148,242.6135,60.81977,50.49931
1167334,357.9045,242.2317,60.80318,50.45502
1167350,357.5818,241.8214,60.78117,50.40733
1167367,357.2705,241.508,60.7599,50.37083
1167383,356.9939,241.2097,60.74098,50.33603
1167400,356.6237,241.0199,60.71563,50.31387
1167417,356.2797,240.8234,60.69203,50.29091
1167434,355.8167,240.741,60.66022,50.28127
1167450,355.3315,240.616,60.62682,50.26664
1167468,354.8517,240.424,60.59371,50.24416
1167486,354.3311,240.2921,60.55771,50.2287
1167501,353.7989,240.0794,60.52083,50.20374
1167518,353.1889,239.8315,60.47846,50.17464
1167536,352.5919,239.5414,60.43688,50.14053
1167556,352.0072,239.2308,60.39605,50.10395
1167569,351.4016,238.8798,60.35366,50.06255
1167590,350.8627,238.5244,60.31584,50.02054
1167606,350.3171,238.001,60.27747,49.95857
1167624,349.8167,237.4,60.24218,49.8872
1167641,349.3619,236.7342,60.21006,49.8079
1167657,348.9083,236.0949,60.17795,49.73149
1167669,348.4218,235.261,60.14345,49.63148
1167690,348.0367,234.1647,60.11608,49.49937
1167720,348.5589,232.4699,60.15318,49.29372
1167734,348.9468,231.662,60.18068,49.19507
1167743,349.4171,230.7844,60.21396,49.08747
1167756,349.784,229.4594,60.23988,48.92414
1167774,349.9339,228.5608,60.25046,48.81276
1167789,349.9923,227.5532,60.25457,48.68726
1167807,349.85,226.5258,60.24454,48.55866
1167825,349.653,225.551,60.23063,48.43604
1167841,349.2524,224.377,60.20231,48.28757
1167861,348.8586,223.2827,60.17443,48.14839
1167875,348.4197,222.2576,60.1433,48.01732
1167889,347.8434,220.9406,60.10233,47.84795
1167907,347.2599,219.796,60.06074,47.69985
1167923,346.7024,218.6701,60.02092,47.55334
1167940,346.2041,217.6372,59.98523,47.41822
1167956,345.6635,216.4415,59.94644,47.26092
1167973,345.2457,215.3363,59.91639,47.11469
1167990,344.8165,214.2881,59.88546,46.97526
1168007,344.4705,213.2448,59.86049,46.83574
1168024,344.1788,212.3217,59.83942,46.7117
1168040,343.9822,211.427,59.8252,46.59093
1168058,343.7737,210.6553,59.81009,46.48633
1168074,343.5995,209.8591,59.79747,46.37798
1168091,343.4152,209.0483,59.7841,46.2672
1168107,343.2106,208.0204,59.76925,46.12612
1168130,343.1475,207.4726,59.76466,46.05062
1168141,343.0155,206.8108,59.75508,45.95915
1168157,342.9406,206.1669,59.74963,45.86987
1168172,342.8804,205.5542,59.74526,45.78464
1168190,342.8718,204.9309,59.74463,45.69767
1168207,342.8047,204.2596,59.73975,45.60369
1168223,342.7042,203.6296,59.73244,45.51522
1168243,342.6002,203.0897,59.72486,45.43917
1168260,342.4383,202.6564,59.71307,45.37798
1168276,342.2565,202.128,59.69982,45.3032
1168291,342.085,201.5737,59.68731,45.22453
1168308,341.9004,201.0813,59.67383,45.15446
1168324,341.7139,200.5553,59.66021,45.07943
1168341,341.4718,200.0192,59.6425,45.00275
1168361,341.2495,199.5281,59.62622,44.93233
1168377,341.1833,199.6461,59.62138,44.94926
1168393,340.9917,199.3204,59.60733,44.9025
1168408,340.8008,199.0255,59.59333,44.86007
1168425,340.6385,198.7744,59.58141,44.82391
1168441,340.497,198.5579,59.57101,44.79269
1168460,340.39,198.4255,59.56315,44.77357
1168476,340.2774,198.3101,59.55487,44.75691
1168493,340.1719,198.177,59.54711,44.73768
1168516,340.117,198.0441,59.54307,44.71846
1168527,340.0681,197.922,59.53947,44.7008
1168544,340.047,197.8403,59.53791,44.68897
1168559,340.0314,197.748,59.53677,44.67561
1168575,340.0149,197.5978,59.53555,44.65384
1168593,339.9828,197.5069,59.53319,44.64066
1168610,339.9923,197.4509,59.53389,44.63253
1168628,339.9893,197.3407,59.53367,44.61654
1168643,339.9359,197.3111,59.52974,44.61224
1168660,339.9408,197.2942,59.53009,44.60978
1168676,339.9846,197.4245,59.53332,44.6287
1168693,340.042,197.5725,59.53755,44.65017
1168710,340.0754,197.8073,59.54001,44.6842
1168726,340.0892,198.1265,59.54102,44.73037
1168743,340.0884,198.4243,59.54097,44.7734
1168760,340.0468,198.7762,59.5379,44.82416
1168777,340.0415,199.1171,59.53751,44.87326
1168794,340.0309,199.4168,59.53673,44.91635
1168811,339.9524,199.6095,59.53095,44.944
1168827,339.8903,199.7207,59.52637,44.95997
1168845,339.8819,199.7118,59.52576,44.95869
1168866,339.8625,199.8108,59.52432,44.97289
1168879,339.8632,199.7778,59.52438,44.96816
1168894,339.8317,199.877,59.52206,44.98237
1168910,339.838,199.8941,59.52252,44.98483
1168928,339.8552,199.8296,59.52379,44.97557
1168944,339.9093,199.7715,59.52777,44.96725
1168960,339.9681,199.8539,59.53211,44.97906
1168978,340.0431,199.9434,59.53762,44.99189
1168994,340.145,200.1216,59.54513,45.01741
1169011,340.2627,200.2297,59.55379,45.03288
1169028,340.3709,200.3781,59.56174,45.05411
1169045,340.5107,200.5001,59.57203,45.07154
1169062,340.6827,200.6109,59.58466,45.08738
1169079,340.8261,200.7829,59.59518,45.11192
1169095,341.0246,200.8969,59.60975,45.12818
1169111,341.2122,201.0906,59.62349,45.15579
1169130,341.4142,201.1755,59.63828,45.16789
1169145,341.4155,201.0254,59.63838,45.14651
1169164,341.5396,201.0819,59.64746,45.15455
1169181,341.7142,201.1495,59.66022,45.16418
1169197,341.842,201.2533,59.66957,45.17896
1169213,341.9566,201.4349,59.67794,45.2048
1169229,342.0177,201.6103,59.6824,45.22973
1169247,342.0445,201.7403,59.68435,45.24819
1169265,342.0134,201.8627,59.68208,45.26557
1169280,342.0005,201.9789,59.68114,45.28205
1169296,341.9557,202.1585,59.67787,45.30752
1169315,341.8994,202.2982,59.67376,45.32731
1169332,341.8549,202.519,59.67051,45.35856
1169351,341.8526,202.6475,59.67034,45.37673
1169367,341.8634,202.7536,59.67113,45.39173
1169383,341.9009,202.9259,59.67387,45.41605
1169400,341.9725,203.1058,59.6791,45.44143
1169419,342.0467,203.2713,59.68451,45.46478
1169434,342.1573,203.5802,59.69258,45.50827
1169450,342.2839,203.8673,59.70182,45.54863
1169469,342.4507,204.1649,59.71398,45.59042
1169485,342.5854,204.4167,59.72379,45.62571
1169501,342.6875,204.7137,59.73122,45.6673
1169524,342.8003,204.9716,59.73943,45.70335
1169537,342.8777,205.1531,59.74506,45.7287
1169551,342.9218,205.3533,59.74826,45.75663
1169568,342.9176,205.4386,59.74796,45.76852
1169585,342.8917,205.5658,59.74608,45.78625
1169600,342.832,205.6286,59.74173,45.795
1169617,342.7094,205.7042,59.73281,45.80552
1169634,342.5807,205.763,59.72345,45.81371
1169651,342.3488,205.7969,59.70655,45.81843
1169669,342.1159,205.9084,59.68956,45.83393
1169685,341.8687,206.0615,59.67151,45.85522
1169708,341.6571,206.1179,59.65605,45.86306
1169726,341.5316,206.1476,59.64687,45.86718
1169737,341.4401,206.1576,59.64017,45.86857
1169749,341.2989,206.2277,59.62984,45.8783
1169767,341.2058,206.2881,59.62302,45.8867
1169783,341.1183,206.3655,59.61661,45.89743
1169800,341.0558,206.3932,59.61203,45.90128
1169816,340.9547,206.4181,59.60461,45.90473
1169833,340.9045,206.3903,59.60094,45.90088
1169850,340.935,206.2104,59.60317,45.87591
1169867,340.9002,206.1052,59.60062,45.86129
1169885,340.9031,206.1058,59.60083,45.86137
1169900,340.8706,206.069,59.59845,45.85627
1169917,340.8371,206.0178,59.59599,45.84915
1169933,340.7808,206.0354,59.59186,45.85159
1169949,340.7381,206.0077,59.58873,45.84774
1169967,340.6096,205.941,59.57929,45.83847
1169984,340.5236,205.788,59.57297,45.81719
1170002,340.4179,205.7864,59.5652,45.81697
1170019,340.3094,205.7424,59.55723,45.81084
1170036,340.215,205.684,59.55028,45.80272
1170054,340.1471,205.6972,59.54529,45.80455
1170069,340.0827,205.7491,59.54055,45.81178
1170086,340.0112,205.7564,59.53528,45.81279
1170104,339.9598,205.7744,59.53149,45.81529
1170121,339.9384,205.7701,59.52992,45.8147
1170137,339.9014,205.7973,59.52719,45.81848
1170153,339.8606,205.8346,59.52419,45.82367
1170170,339.8472,205.9079,59.5232,45.83386
1170188,339.7877,205.9295,59.51881,45.83687
1170203,339.7362,205.9588,59.51502,45.84095
1170220,339.6846,205.9434,59.51122,45.83881
1170237,339.6068,205.9582,59.50547,45.84086
1170254,339.5117,205.9549,59.49846,45.84041
1170269,339.4341,205.9033,59.49273,45.83323
1170286,339.3178,205.9057,59.48414,45.83356
1170303,339.2523,206.0242,59.4793,45.85004
1170320,339.2468,206.0692,59.47889,45.8563
1170337,339.2462,206.2557,59.47885,45.8822
1170353,339.1653,206.4179,59.47287,45.9047
1170370,339.0264,206.6346,59.4626,45.93475
1170386,338.8698,206.7526,59.45102,45.9511
1170404,338.7365,206.8607,59.44115,45.96606
1170420,338.4393,206.9458,59.41913,45.97784
1170437,337.9759,206.9356,59.38472,45.97642
1170454,337.5125,207.0172,59.35026,45.98771
1170470,336.739,206.9963,59.29257,45.98482
1170487,335.9046,207.0627,59.23013,45.99401
1170504,334.6139,207.1528,59.13308,46.00645
1170522,333.2505,207.3186,59.02996,46.02936
1170538,331.6564,207.5186,58.9086,46.05696
1170553,329.3696,207.7363,58.73302,46.08699
1170570,327.318,207.9054,58.57396,46.11028
1170587,324.9677,208.0386,58.38995,46.12862
1170607,322.6945,208.0988,58.21014,46.13689
1170621,320.627,208.1604,58.045,46.14536
1170637,318.2381,208.2191,57.85227,46.15344
1170655,315.8933,208.3247,57.66107,46.16796
1170674,312.7849,208.4732,57.40446,46.18835
1170708,308.9342,208.6254,57.0815,46.20924
1170725,307.1333,208.6411,56.9285,46.2114
1170738,305.4589,208.6811,56.78512,46.21688
1170750,303.6501,208.7364,56.62898,46.22446
1170759,301.8037,208.7959,56.46827,46.23262
1170774,299.4753,208.8005,56.26362,46.23325
1170791,297.1627,208.9321,56.05818,46.25129
1170809,294.9764,208.9371,55.86193,46.25197
1170825,292.5931,209.1749,55.64571,46.28452
1170841,290.4227,209.4314,55.4467,46.3196
1170859,287.2094,209.9594,55.14834,46.39165
1170882,285.0958,210.3679,54.94963,46.44726
1170895,282.9226,210.8327,54.74324,46.5104
1170907,279.5313,211.566,54.4169,46.60973
1170926,276.2079,212.3285,54.092,46.71262
1170943,273.021,213.1362,53.77557,46.82117
1170958,269.7368,213.8053,53.44442,46.91078
1170976,265.994,214.4105,53.06062,46.99157
1170994,262.917,214.8464,52.73989,47.04961
1171010,259.8261,215.3061,52.41288,47.11068
1171026,256.2152,215.9128,52.02462,47.19107
1171045,253.4498,216.3887,51.72264,47.25395
1171062,250.9299,216.8563,51.44392,47.3156
1171077,248.6101,217.2627,51.18428,47.36906
1171093,246.0259,217.6347,50.89156,47.41789
1171111,244.2268,217.7831,50.68557,47.43734
1171127,242.0889,218.0469,50.43843,47.4719
1171145,240.58,218.232,50.26243,47.49612
1171160,238.6762,218.4517,50.03849,47.52483
1171185,237.7005,218.6401,49.92291,47.54943
1171195,237.0722,218.7184,49.84818,47.55965
1171209,236.2939,218.832,49.75531,47.57446
1171227,235.572,219.0188,49.66883,47.59881
1171244,235.1782,219.1098,49.62153,47.61065
1171262,234.8593,219.2165,49.58316,47.62454
1171279,234.7271,219.3253,49.56724,47.63871
1171293,234.728,219.4026,49.56734,47.64875
1171311,234.8224,219.5132,49.57872,47.66312
1171328,234.8882,219.6392,49.58664,47.6795
1171349,235.0869,219.7564,49.61055,47.69471
1171366,235.3145,219.792,49.63791,47.69933
1171379,235.595,219.8313,49.67159,47.70444
1171395,235.8888,219.8573,49.70682,47.70781
1171411,236.2521,219.9536,49.7503,47.72029
1171427,236.5112,220.0991,49.78127,47.73915
1171444,236.7748,220.2162,49.81274,47.75433
1171461,236.954,220.2282,49.83411,47.75588
1171477,237.0783,220.3787,49.84892,47.77536
1171491,237.2278,220.6293,49.86671,47.80776
1171509,237.4732,221.25,49.8959,47.88785
1171526,237.7879,222.1946,49.93328,48.00924
1171546,238.0274,223.2555,49.9617,48.14492
1171574,237.9841,224.0299,49.95657,48.2435
1171585,237.9846,224.5101,49.95663,48.30445
1171591,237.9804,225.3479,49.95612,48.41041
1171608,237.9862,226.3094,49.95681,48.53149
1171625,238.156,227.5162,49.97694,48.68265
1171641,238.5314,228.8377,50.02138,48.84713
1171659,239.1234,230.1205,50.09128,49.00577
1171676,239.9973,231.7122,50.19412,49.20122
1171693,240.8796,233.218,50.29747,49.3847
1171710,241.9722,234.7704,50.42486,49.57245
1171727,242.9162,236.0845,50.53437,49.73026
1171744,243.9872,237.295,50.658,49.87471
1171759,245.2631,238.0866,50.80445,49.96872
1171777,246.4912,238.8715,50.94454,50.06157
1171794,247.8568,239.624,51.09933,50.15024
1171810,249.2528,240.5134,51.25651,50.25463
1171827,250.7119,241.3038,51.41964,50.34702
1171844,252.4321,242.1433,51.61048,50.44475
1171861,254.0207,242.9671,51.78532,50.54027
1171882,255.9001,243.9032,51.99042,50.64833
1171900,257.375,244.6827,52.15007,50.73795
1171910,259.2232,245.8094,52.34853,50.86687
