Time Stamp(ms),Intersection,,Angle,
,x,y,x,y
868957.3,336.401,244.5393,59.26731,50.72149
868972.5,336.3055,244.5851,59.26016,50.72674
868990.6,336.396,245.024,59.26693,50.77708
869007.8,336.5779,245.3001,59.28054,50.80868
869025.6,337.0198,245.3048,59.31354,50.80922
869041,337.6185,244.731,59.35815,50.74348
869057.9,338.1813,244.2221,59.39999,50.68504
869075.1,339.1676,243.8432,59.47304,50.64142
869091.9,340.1334,243.9443,59.54428,50.65307
869108.6,340.8036,244.0328,59.59353,50.66326
869125.2,341.3063,244.3715,59.63038,50.70221
869144.3,341.5659,244.4184,59.64939,50.70761
869160.9,341.743,244.6171,59.66233,50.73042
869178.3,341.9852,244.8332,59.68002,50.75521
869192.8,342.0026,245.3494,59.68129,50.81432
869209.9,341.9511,245.7122,59.67753,50.85578
869228.1,342.0654,245.8816,59.68588,50.8751
869244.9,342.2915,245.4737,59.70237,50.82853
869260.8,342.7395,244.8725,59.73501,50.75972
869278.1,343.1971,244.4662,59.76827,50.7131
869293.6,344.0392,243.8469,59.82932,50.64185
869312.8,344.9443,243.4209,59.89468,50.59272
869328.5,345.9055,243.2179,59.96382,50.56927
869344.4,346.6399,243.0896,60.01644,50.55444
869361.6,347.3836,242.9183,60.06957,50.53462
869378.1,347.7477,242.8915,60.09551,50.53151
869391.4,348.2611,242.9324,60.13204,50.53625
869408.8,348.4193,243.2558,60.14327,50.57365
869425.8,348.3466,243.7656,60.13811,50.63248
869442.9,348.3533,244.1064,60.13858,50.67173
869459.3,347.9464,244.2143,60.10966,50.68414
869475.9,347.5278,243.9235,60.07985,50.65067
869495,347.1292,243.5058,60.05141,50.60251
869509.9,346.8529,243.3115,60.03168,50.58008
869526,346.4498,243.0792,60.00284,50.55323
869541.4,346.1107,242.8575,59.97853,50.52758
869559.6,345.8444,242.6456,59.95943,50.50304
869579.1,345.6519,242.3463,59.9456,50.46832
869592.6,345.6469,241.8296,59.94524,50.40828
869609.4,345.7007,241.4226,59.94911,50.36088
869625.7,345.9555,240.9085,59.96741,50.30086
869642.2,346.6752,240.3836,60.01897,50.23943
869660,347.9673,239.8232,60.11115,50.17367
869675.8,350.4326,239.3007,60.2856,50.11218
869692.6,353.2466,238.9129,60.48247,50.06644
869710.2,356.41,238.592,60.70098,50.02855
869726.1,360.5915,238.1944,60.98531,49.98148
869743.6,364.3082,237.9176,61.23384,49.94868
869759.7,367.8498,237.6656,61.46707,49.91876
869776.8,371.2611,237.5667,61.68846,49.90701
869793,374.2812,237.558,61.88184,49.90598
869808.6,377.2701,237.7643,62.07086,49.93048
869828.7,379.558,237.9987,62.21397,49.95829
869846,381.7672,238.5733,62.35088,50.02633
869863.9,383.9507,239.2119,62.48499,50.10172
869883.3,385.6347,239.6907,62.58759,50.15808
869897.2,387.3227,240.6368,62.68974,50.26908
869913.7,389.236,241.4889,62.80467,50.36861
869931.3,390.9443,242.3251,62.90654,50.46586
869947.7,392.8863,243.6037,63.02148,50.61382
869963.1,394.8035,244.9933,63.13409,50.77355
869980.1,396.7651,246.6678,63.2484,50.96462
869997.3,398.5145,248.6645,63.34958,51.1904
870013.1,400.3817,250.3183,63.4568,51.37574
870030.1,402.1262,251.7734,63.55625,51.5376
870047.5,403.7693,252.6837,63.6493,51.63827
870063.6,405.6151,253.4274,63.75309,51.72019
870081.2,407.1863,254.1024,63.84085,51.79428
870096.8,408.7555,254.6481,63.92796,51.854
870111.5,410.5988,255.3233,64.02959,51.92767
870128.8,412.5235,256.0157,64.13493,52.00298
870146,414.4198,256.6775,64.23793,52.07471
870162.8,416.4427,257.4679,64.34697,52.16009
870178.5,418.3831,258.3045,64.45077,52.2501
870197.8,420.6758,259.5101,64.57239,52.37917
870218.4,422.3934,260.5687,64.66281,52.49189
870231,424.2888,261.8646,64.76189,52.62909
870247.8,426.3293,263.4782,64.86774,52.79873
870264.3,428.1898,265.0603,64.96354,52.9638
870281.3,430.1338,266.5966,65.06291,53.12288
870297,431.9591,267.95,65.15554,53.26204
870313.8,433.6165,269.1152,65.2391,53.38115
870330.3,435.1122,270.1212,65.31405,53.48344
870346.5,436.6634,271.0679,65.39133,53.57926
870363.9,438.3439,271.9323,65.47455,53.66636
870390.7,439.4509,272.5142,65.52908,53.7248
870406.4,440.2933,272.8504,65.57043,53.75849
870419.4,440.937,272.9817,65.60193,53.77164
870435.3,441.56,273.0946,65.63235,53.78293
870448.5,442.0353,273.2069,65.6555,53.79416
870463.9,442.4341,273.2943,65.6749,53.80289
870482.3,442.4376,273.2216,65.67507,53.79563
870496.9,442.5438,273.1574,65.68024,53.78921
870512.4,442.5774,273.0433,65.68187,53.7778
870531.6,442.5934,272.9362,65.68265,53.76708
870548.1,442.5786,272.9184,65.68192,53.7653
870564.6,442.5716,272.8641,65.68159,53.75987
870581.4,442.5554,272.8725,65.6808,53.76071
870600.1,442.5667,272.7358,65.68135,53.74701
870615.1,442.6141,272.6829,65.68365,53.74171
870630.2,442.6944,272.5143,65.68755,53.72482
870649.8,442.8103,272.4062,65.69318,53.71397
870664.5,442.8933,272.3242,65.6972,53.70574
870682.6,443.1023,272.0768,65.70734,53.68089
870699.9,443.3095,271.8982,65.71738,53.66294
870713.6,443.4807,271.6691,65.72568,53.63988
870730.8,443.6263,271.3067,65.73273,53.60336
870747.3,443.7249,270.9072,65.7375,53.56303
870764.3,443.6668,270.1658,65.73469,53.48797
870785.3,443.5074,269.4008,65.72697,53.41024
870802.6,443.304,268.4929,65.71712,53.31762
870816.2,442.8298,267.3524,65.69412,53.20071
870830.8,442.1636,266.0341,65.66175,53.06476
870850,441.6509,264.9795,65.63678,52.95539
870865.5,440.6643,263.4106,65.58859,52.79165
870883.4,439.7424,261.9294,65.5434,52.63593
870898,438.6351,260.4129,65.48891,52.47534
870915.4,437.3071,258.7188,65.42327,52.29454
870934.1,436.0364,257.0915,65.36015,52.11947
870947.8,434.6005,255.3563,65.28845,51.93127
870966.3,433.3523,253.7012,65.22581,51.75026
870982.1,432.0162,252.0695,65.15843,51.5704
870997.6,430.4503,250.0674,65.07902,51.34772
871014.2,428.7423,248.0316,64.99186,51.11906
871031.3,427.0084,246.1071,64.90279,50.90081
871048.2,425.0249,244.3151,64.80017,50.69572
871066.8,423.2281,242.6532,64.70654,50.50392
871083.9,421.2444,240.8152,64.60239,50.28995
871100.6,419.4926,238.9094,64.50976,50.06604
871117.3,417.757,236.8698,64.41736,49.82407
871133.3,416.0198,234.5022,64.32425,49.54012
871150.6,414.4541,232.2117,64.23979,49.26224
871163.7,412.6091,229.2686,64.13959,48.90053
871184.9,411.169,227.1333,64.06087,48.63478
871200.4,409.8256,225.259,63.98705,48.39919
871217.6,408.6633,223.5809,63.92285,48.18639
871233.2,407.4748,221.9569,63.85691,47.97876
871250.1,406.6236,220.5508,63.80949,47.79761
871266.9,405.791,219.2448,63.76295,47.62823
871284.9,405.1759,218.2966,63.72847,47.50456
871301.3,404.7377,217.7099,63.70385,47.42775
871319,404.4151,217.2472,63.6857,47.36701
871334.6,404.1339,216.9678,63.66986,47.33027
871355.2,404.0736,216.9473,63.66646,47.32756
871371,404.1767,217.0476,63.67227,47.34076
871383.8,404.2941,217.0465,63.67888,47.34062
871401.4,404.4958,217.0147,63.69024,47.33644
871419.4,404.7893,216.9209,63.70675,47.3241
871435,405.262,216.7072,63.7333,47.29594
871452.8,405.6629,216.3557,63.75577,47.24959
871468.4,406.1212,216.0212,63.78142,47.2054
871485.3,406.526,215.662,63.80404,47.15787
871503.3,406.8144,215.253,63.82013,47.10363
871519,407.0364,214.6765,63.8325,47.027
871537.6,407.0657,213.984,63.83414,46.93467
871560.7,407.0288,213.6102,63.83208,46.88469
871572.1,406.8077,213.2884,63.81976,46.84159
871583.4,406.3946,212.8218,63.7967,46.77897
871600.2,405.6802,212.502,63.75674,46.73598
871617.4,404.4929,212.266,63.69008,46.7042
871633.6,402.6869,212.1307,63.58807,46.68596
871651.4,400.0938,212.202,63.44032,46.69557
871667.4,396.3112,212.5498,63.22203,46.7424
871684.1,392.807,212.7147,63.01681,46.76458
871700.6,388.6827,212.9962,62.77153,46.8024
871720.4,385.1733,213.286,62.55955,46.84127
871735.9,381.3424,213.5919,62.32465,46.88223
871752.2,377.792,213.8948,62.10362,46.92275
871771.4,374.5292,214.0909,61.89762,46.94894
871787.1,371.2975,214.2292,61.6908,46.9674
871802,368.1721,214.3024,61.48812,46.97716
871819.3,365.2691,214.2524,61.29747,46.97049
871834.4,361.2777,213.6667,61.03149,46.89224
871853.5,357.6349,213.0574,60.78479,46.8106
871869.8,353.8555,212.3224,60.52476,46.71179
871884.8,350.2144,211.9019,60.27023,46.65511
871903.2,347.1038,211.6172,60.04961,46.61665
871917.1,343.7248,211.4977,59.80655,46.60049
871934.8,340.2592,211.5232,59.55353,46.60394
871951.8,336.9987,211.7055,59.31197,46.62858
871968.2,333.4401,211.9849,59.04434,46.66631
871986.3,330.251,212.3015,58.8009,46.70898
872001.9,326.6457,212.7126,58.52152,46.7643
872018.6,322.3738,213.1133,58.18463,46.81811
872034.2,317.3989,213.5702,57.78407,46.87933
872051.4,312.5269,214.0675,57.38299,46.94582
872066.9,307.8029,214.3714,56.98554,46.98635
872085.3,303.516,214.6996,56.61736,47.03007
872102.9,300.21,215.0223,56.32844,47.073
872118.1,296.7369,215.3858,56.02012,47.12126
872134.7,293.3806,215.8403,55.71742,47.18147
872151.2,290.0403,216.2073,55.41143,47.23
872170.1,286.769,216.5155,55.1071,47.27068
872187.7,283.2954,216.7888,54.77879,47.30671
872202.1,279.7131,217.1572,54.43454,47.35518
872218.8,275.2146,217.8552,53.99389,47.44679
872235.1,270.945,218.7205,53.56685,47.55992
872253.6,266.961,219.5999,53.16043,47.67439
872269.3,262.7676,220.4298,52.72419,47.78197
872286,259.0023,220.9336,52.3249,47.84705
872302.2,255.0018,221.3975,51.89262,47.90684
872322.6,250.5775,221.9042,51.40467,47.97199
872337.3,246.9006,222.198,50.99105,48.00969
872350.6,242.9141,222.5901,50.53413,48.0599
872369.1,239.5339,222.9593,50.13964,48.10711
872387.4,236.6534,223.2801,49.79825,48.14805
872403.5,233.9755,223.7279,49.4765,48.2051
872419.7,231.9362,224.0357,49.2286,48.24424
872436.2,230.3015,224.4536,49.02807,48.29728
872452.9,228.8783,224.8365,48.85217,48.34578
872469.6,227.7359,225.1169,48.71006,48.38123
872486.5,226.9116,225.3568,48.60703,48.41153
872504.1,226.0835,225.568,48.5031,48.43818
872519.2,225.3271,225.7965,48.40779,48.46698
872537.1,224.6271,226.0371,48.31927,48.49726
872552.9,223.8428,226.2837,48.21971,48.52827
872570.1,223.0756,226.4247,48.12196,48.54597
872586.4,222.3988,226.4016,48.03541,48.54307
872606.1,221.6676,226.4064,47.94158,48.54367
872621.4,221.1363,226.3548,47.87319,48.53719
872637.6,220.703,226.4159,47.81728,48.54487
872650.8,220.324,226.5574,47.76828,48.56263
872669.3,219.9455,226.729,47.71925,48.58416
872687.9,219.7831,226.897,47.69818,48.6052
872703.3,219.7714,227.1415,47.69666,48.63581
872721.1,219.8756,227.3835,47.71018,48.66607
872738.6,220.0038,227.6353,47.72681,48.69751
872754.1,220.1941,227.8961,47.75146,48.73005
872772.9,220.2799,228.1046,47.76257,48.75602
872790.1,220.382,228.3132,47.77578,48.78197
872805.1,220.4985,228.5244,47.79086,48.80823
872819.8,220.7026,228.7364,47.81722,48.83456
872837.1,220.9198,228.9054,47.84527,48.85553
872858.3,221.0072,229.0681,47.85654,48.87571
872873.4,221.0968,229.1769,47.8681,48.88918
872888.6,221.22,229.3684,47.88398,48.91289
872904.1,221.3515,229.623,47.90091,48.94437
872922.3,221.491,230.0386,47.91887,48.99567
872939.6,221.649,230.2631,47.9392,49.02334
872955.7,221.7942,230.4885,47.95785,49.0511
872970.3,222.0054,230.7689,47.98498,49.08557
872988.1,222.1462,230.9884,48.00304,49.11254
873005.2,221.7807,230.3219,47.95612,49.03059
873030.1,221.7768,230.2199,47.95562,49.01802
873042,221.8209,230.144,47.96129,49.00867
873052.4,221.9368,229.937,47.97617,48.98314
873069.6,222.0398,229.9079,47.98939,48.97955
873089.9,222.1272,229.7677,48.0006,48.96225
873108.8,222.18,229.7466,48.00737,48.95963
873120.6,222.2247,229.7262,48.0131,48.95711
873138.3,222.2147,229.69,48.01183,48.95264
873156.2,222.1074,229.6482,47.99806,48.94748
873172.3,221.9155,229.6246,47.97344,48.94457
873190.6,221.7507,229.5687,47.95227,48.93765
873205.1,221.6413,229.5351,47.9382,48.93351
873222.8,221.6191,229.514,47.93535,48.93089
873239.2,221.6798,229.477,47.94316,48.92632
873255.7,221.6841,229.3669,47.94371,48.9127
873274.1,221.7633,229.1958,47.95388,48.89151
873287.9,221.8416,228.9779,47.96394,48.86451
873304.9,221.9095,228.7272,47.97266,48.83341
873322.4,221.9751,228.4623,47.98108,48.80051
873339.3,222.053,228.3462,47.99109,48.78608
873357.7,222.1268,228.1112,48.00056,48.75684
873374.5,222.245,228.0267,48.0157,48.74631
873390.7,222.3871,227.7897,48.03392,48.71678
873407.1,222.6042,227.8893,48.06171,48.72919
873424.6,222.7718,227.7468,48.08315,48.71143
873440.2,222.9079,227.813,48.10054,48.71968
873456.3,223.0626,227.8515,48.1203,48.72449
873471.3,223.2065,227.7725,48.13867,48.71463
873488.7,223.2876,227.8816,48.14901,48.72823
873506.5,223.4078,227.8197,48.16433,48.72052
873523.9,223.5215,227.8041,48.17882,48.71857
873540.8,223.6021,227.7887,48.18909,48.71666
873560.1,223.6358,227.7334,48.19338,48.70975
873572.8,223.455,227.7477,48.17035,48.71154
873588.8,223.3372,227.656,48.15533,48.7001
873604.3,223.2542,227.6833,48.14476,48.70351
873621.1,223.2199,227.7719,48.14038,48.71455
873641.2,223.2005,227.7737,48.1379,48.71478
873657.9,223.1564,227.7865,48.13227,48.71638
873673.8,223.0914,227.7659,48.12398,48.71381
873689.2,223.1184,227.7644,48.12743,48.71362
873706.1,223.1846,227.7447,48.13587,48.71117
873722.2,223.2151,227.6633,48.13976,48.70101
873738.6,223.1948,227.6315,48.13717,48.69704
873754.6,223.2404,227.5629,48.14299,48.68848
873773.9,223.3875,227.4197,48.16175,48.67059
873789.3,223.5432,227.3182,48.18158,48.65791
873809.5,223.6285,227.1894,48.19245,48.6418
873824.8,223.6956,227.2732,48.20099,48.65228
873840.3,223.7105,227.2965,48.20288,48.6552
873861.1,223.684,227.2785,48.19951,48.65295
873878,223.5935,227.2171,48.188,48.64527
873894.3,223.4303,227.2162,48.1672,48.64516
873906.1,223.2924,227.2687,48.14963,48.65172
873922.3,223.1692,227.2345,48.13391,48.64745
873940.8,223.0963,227.1372,48.12461,48.63527
873956.4,223.0035,226.9962,48.11276,48.61762
873972,222.8514,227.0231,48.09333,48.62099
873989.4,222.7357,226.8827,48.07853,48.60341
874007.1,222.6402,226.5863,48.06632,48.56625
874025.7,222.6033,226.3543,48.06159,48.53714
874043.3,222.5405,226.1719,48.05356,48.51422
874058.6,222.5401,226.0526,48.05351,48.49921
874073.1,222.5724,225.9158,48.05764,48.482
874098.9,222.6206,225.9836,48.06381,48.49053
874112.9,222.6479,225.9538,48.06731,48.48679
874123.7,222.7059,225.9462,48.07473,48.48582
874140.6,222.7573,225.9809,48.08129,48.49019
874157.3,222.7453,225.8779,48.07975,48.47722
874173.6,222.7789,225.8184,48.08406,48.46973
874190.9,222.7585,225.716,48.08146,48.45683
874208.6,222.7201,225.5612,48.07654,48.43733
874225.1,222.6703,225.3933,48.07017,48.41615
874245.4,222.6113,225.3323,48.06262,48.40844
874259.9,222.5446,225.0823,48.05408,48.37686
874275.9,222.5261,225.0201,48.05172,48.369
874292,222.4828,224.8835,48.04617,48.35173
874307.4,222.467,224.7834,48.04414,48.33905
874324.1,222.4367,224.7258,48.04028,48.33177
874341.9,222.4443,225.1325,48.04124,48.38321
874358.1,222.4185,225.2756,48.03794,48.40129
874373.4,222.4351,225.4453,48.04006,48.4227
874390.3,222.4152,225.5526,48.03751,48.43624
874406.6,222.36,225.7605,48.03045,48.46244
874423.8,222.3172,225.9622,48.02496,48.48783
874442.3,222.267,226.0757,48.01853,48.50212
874457.9,222.1087,226.1341,47.99824,48.50946
874474.7,222.016,226.1692,47.98634,48.51387
874492.1,221.937,226.1206,47.97619,48.50776
874508.2,221.7474,225.9211,47.95184,48.48267
874527.9,221.6896,225.6502,47.94442,48.44854
874543.7,221.7132,225.3695,47.94745,48.41314
874562.9,221.802,224.9588,47.95885,48.36125
874576.9,221.824,224.6792,47.96169,48.32586
874593.6,221.8333,224.5203,47.96288,48.30574
874614.3,221.8421,224.4238,47.96402,48.2935
874627.4,221.8763,224.1883,47.9684,48.26362
874644,221.9709,224.0934,47.98054,48.25157
874660.1,222.1395,223.9607,48.00218,48.2347
874677.3,222.3893,223.8278,48.03419,48.21781
874693.6,222.6445,223.8665,48.06687,48.22273
874710.5,222.9413,223.8779,48.10482,48.22419
874729.1,223.1718,224.0534,48.13424,48.24649
874747.4,223.1706,224.2814,48.13409,48.27543
874762.2,223.2003,224.3068,48.13787,48.27865
874779.4,223.2869,224.2651,48.14892,48.27337
874795.2,223.2561,224.3435,48.145,48.28332
874810.5,223.1359,224.4086,48.12965,48.29156
874829.9,223.0966,224.474,48.12464,48.29986
874845.1,222.9305,224.5335,48.10343,48.30741
874862.4,222.8385,224.4416,48.09167,48.29575
874877.7,222.767,224.3994,48.08254,48.29041
874894.5,222.7853,224.25,48.08488,48.27145
874913.8,222.7993,224.0882,48.08667,48.25091
874929.6,222.8936,224.0782,48.09872,48.24963
874946.1,223.0185,223.9339,48.11467,48.2313
874962.4,223.134,223.7698,48.12941,48.21043
874978.5,223.3009,223.5396,48.15071,48.18113
874995.8,223.4246,223.4026,48.16647,48.16367
875012.6,223.5415,223.3511,48.18138,48.15711
875028.1,223.6373,223.2403,48.19357,48.14297
875046.6,223.779,223.0473,48.21161,48.11835
875061.9,223.8407,223.0501,48.21944,48.1187
875076.9,223.9386,223.1637,48.2319,48.13321
875097.1,223.9855,223.1821,48.23785,48.13556
875129.7,224.0093,223.5134,48.24088,48.17779
875155.4,223.94,223.5934,48.23208,48.18798
875173.6,223.8944,223.6953,48.22628,48.20095
875186.2,223.7652,223.7278,48.20984,48.20509
875200.9,223.7616,223.8164,48.20939,48.21636
875212.3,223.7607,223.7682,48.20927,48.21022
875223.7,223.735,223.7931,48.20601,48.21339
875234.8,223.7403,223.7384,48.20668,48.20644
875249.1,223.7897,223.8291,48.21296,48.21798
875262.3,224.0012,223.8272,48.23985,48.21773
875278,224.1401,223.8428,48.2575,48.21971
875293.7,224.3827,223.9105,48.28829,48.22833
875311.4,224.659,224.0737,48.32331,48.24907
875327.3,224.9722,224.3011,48.36294,48.27794
875345.4,225.2535,224.4151,48.3985,48.2924
875362.2,225.479,224.5889,48.42695,48.31443
875379.4,225.6579,224.767,48.44951,48.33698
875393.8,225.871,224.9097,48.47635,48.35504
875411.4,226.0469,225.0712,48.4985,48.37547
875427.5,226.2152,225.063,48.51965,48.37442
875444.9,226.3922,225.1843,48.54189,48.38976
875461.8,226.4602,225.3673,48.55043,48.41286
875478.3,226.4685,225.4062,48.55148,48.41777
875493.8,226.5761,225.3965,48.56498,48.41655
875510.6,226.6363,225.3839,48.57252,48.41495
875528.8,226.682,225.3696,48.57825,48.41315
875544.3,226.7656,225.574,48.58873,48.43893
875560.9,226.8458,225.758,48.59879,48.46212
875581,227.0453,225.8557,48.62377,48.47443
875594.3,227.2004,226.1003,48.64318,48.50521
875613.1,227.3212,226.253,48.65828,48.52441
875628.9,227.4041,226.4588,48.66864,48.55025
875646.8,227.5255,226.6044,48.6838,48.56853
875663.7,227.4415,226.6324,48.67331,48.57204
875676.3,227.4279,226.6743,48.67162,48.57729
875693.4,227.4102,226.6737,48.6694,48.57722
875710.7,227.4161,226.7283,48.67015,48.58406
875725.9,227.425,226.721,48.67125,48.58315
875743,227.4608,226.733,48.67573,48.58465
875760.6,227.4836,226.7073,48.67858,48.58142
875777.4,227.4827,226.7363,48.67847,48.58506
875793.5,227.4795,226.7859,48.67806,48.59128
875811.5,227.5169,226.8613,48.68273,48.60073
875831.3,227.5966,226.9461,48.69268,48.61135
875849.6,227.6057,227.0918,48.69382,48.62959
875864,227.6275,227.0744,48.69654,48.62742
875877.3,227.6622,227.0506,48.70087,48.62444
875897.8,227.6906,227.1847,48.70441,48.64121
875910.3,227.7506,227.2455,48.7119,48.64882
875926.6,227.7633,227.2968,48.71348,48.65523
875943.9,227.7119,227.3754,48.70707,48.66505
875961.6,227.73,227.3342,48.70933,48.65991
875980.3,227.8495,227.3213,48.72423,48.65829
875997.6,227.9297,227.1619,48.73423,48.63837
876013.4,227.9121,227.2208,48.73204,48.64573
876029.6,227.9589,227.4238,48.73786,48.6711
876045.6,227.9799,227.6835,48.74048,48.70353
876061.6,228.0581,227.9016,48.75022,48.73073
876078.8,228.0938,228.0856,48.75467,48.75365
876098.3,228.1466,228.2988,48.76124,48.78019
876117.1,228.2791,228.4036,48.77773,48.79322
876137.6,228.3234,228.4344,48.78324,48.79705
876145.4,228.4763,228.3683,48.80226,48.78883
876161.3,228.6544,228.5542,48.82438,48.81194
876178,228.7601,228.7056,48.8375,48.83074
876194.1,228.8988,228.8944,48.85471,48.85416
876211.6,229.0213,229.0269,48.8699,48.8706
876228.3,229.1007,229.022,48.87974,48.86998
876248.6,229.199,229.0809,48.89191,48.87728
876266.6,229.2661,229.2824,48.90022,48.90224
876280.9,229.4042,229.4451,48.91732,48.92238
876297.9,229.5904,229.4308,48.94033,48.9206
876314.9,229.755,229.468,48.96067,48.92521
876327.9,229.8228,229.58,48.96904,48.93905
876345.1,229.9342,229.6071,48.9828,48.9424
876363.3,229.9449,229.6954,48.98412,48.95331
876379.4,229.9848,229.7437,48.98903,48.95927
876395.2,230.0568,229.7644,48.99792,48.96183
876416.6,230.0968,229.8306,49.00285,48.97001
876435.5,230.1174,229.9547,49.00539,48.98532
876450.2,230.1077,229.9614,49.00419,48.98615
