Time Stamp(ms),Intersection,,Angle,
,x,y,x,y
900038.9,309.8617,253.1644,57.15981,51.69125
900054.6,309.2779,253.2054,57.11056,51.69577
900073.8,308.554,253.1729,57.0493,51.69218
900088.3,308.0658,253.1459,57.00788,51.68921
900104.1,307.5269,252.9863,56.96205,51.67163
900121.3,307.2118,252.7552,56.9352,51.64615
900138.4,306.9528,252.5117,56.9131,51.61928
900155.9,306.7204,252.5379,56.89325,51.62217
900173.6,306.5051,252.5799,56.87484,51.62681
900187.9,306.3975,252.5162,56.86563,51.61978
900203.6,306.246,252.4618,56.85266,51.61377
900221.5,306.179,252.4991,56.84692,51.61789
900239,306.0823,252.3854,56.83863,51.60533
900252.7,306.0918,252.2436,56.83945,51.58965
900269.2,306.3085,252.3233,56.85802,51.59846
900286.8,306.5306,252.367,56.87702,51.60329
900303.1,306.7862,251.9569,56.89888,51.55793
900321.1,307.1128,251.4558,56.92676,51.50237
900336.8,307.5497,250.968,56.964,51.44815
900355.3,308.0485,250.6942,57.00642,51.41768
900369.8,308.2546,250.9488,57.02392,51.44602
900387.3,308.247,251.2623,57.02327,51.48087
900403.3,308.181,251.3596,57.01767,51.49168
900419.8,308.3492,251.004,57.03194,51.45216
900438.6,308.5432,250.5939,57.04839,51.40649
900452.7,308.6947,250.4047,57.06123,51.38539
900470.1,308.7155,250.6032,57.06299,51.40753
900490.1,308.5917,250.998,57.0525,51.45149
900502.8,308.549,251.0264,57.04888,51.45465
900520.3,308.5262,250.958,57.04695,51.44705
900536.9,308.5975,250.7668,57.05299,51.42575
900557.3,308.666,250.5919,57.0588,51.40627
900569.9,308.7412,250.5857,57.06517,51.40558
900586.8,308.9267,250.7709,57.08086,51.42621
900604.2,309.2645,250.9565,57.10943,51.44688
900624,309.7236,251.1514,57.14817,51.46856
900637,310.3855,251.4214,57.20389,51.49855
900654.1,311.2025,251.5304,57.27243,51.51065
900673.7,311.9725,251.4418,57.3368,51.50082
900687.3,312.8064,251.343,57.40625,51.48985
900703.8,313.9242,251.1205,57.49893,51.46512
900720.1,315.1082,250.9379,57.5966,51.44481
900737.9,316.3154,250.7877,57.69564,51.42809
900754.3,317.8007,250.7936,57.81675,51.42874
900771.5,319.1458,250.9125,57.92574,51.44198
900787.8,320.4634,251.1838,58.03187,51.47216
900803.5,321.9092,251.7638,58.1476,51.53653
900821.1,323.0131,252.4501,58.23545,51.61247
900837.5,324.0759,253.1498,58.31963,51.68964
900854.5,324.9086,253.8821,58.3853,51.77012
900875.1,325.4172,254.5516,58.4253,51.84344
900888.2,325.8222,255.2254,58.45708,51.917
900906.7,326.0764,256.0023,58.47699,52.00152
900924.1,326.0864,256.6756,58.47778,52.07451
900940.1,326.1128,257.3373,58.47984,52.14601
900955.7,326.0668,257.6408,58.47624,52.17872
900974.2,325.8668,257.7359,58.46058,52.18896
900989,325.7624,257.6245,58.45239,52.17696
901004.8,325.6561,257.5411,58.44405,52.16798
901021.6,325.5748,257.5647,58.43767,52.17052
901042.2,325.589,257.5099,58.43878,52.16462
901055,325.6935,257.319,58.44699,52.14403
901074.5,325.7738,257.2497,58.45329,52.13655
901088.3,325.8665,257.0973,58.46056,52.1201
901104.4,325.877,256.7911,58.46138,52.087
901121.6,325.7269,256.4348,58.4496,52.04842
901138.7,325.3944,256.0004,58.4235,52.00131
901154.9,324.7581,255.371,58.37346,51.93287
901172.2,324.0966,254.8074,58.32127,51.8714
901190,323.0025,254.4594,58.23461,51.83335
901209.6,321.5035,254.1085,58.1152,51.79494
901223.3,319.2104,254.0621,57.93096,51.78986
901239.9,316.9151,253.9991,57.74464,51.78295
901255.3,314.0876,253.6629,57.51244,51.74606
901272.6,310.1348,253.1948,57.1828,51.69459
901292.9,306.5396,252.8259,56.8778,51.65395
901308.1,302.4873,252.2744,56.52793,51.59306
901324.4,297.6495,251.5188,56.10161,51.50936
901341.4,293.1882,250.8905,55.69992,51.43953
901356.8,287.3195,250.4606,55.15864,51.39163
901374.4,281.2845,249.991,54.58627,51.33918
901394.6,274.8505,249.3602,53.9578,51.26855
901408.8,269.1314,248.8796,53.3828,51.21459
901423.1,263.3632,248.1668,52.78669,51.13433
901440.1,258.6259,247.7213,52.28458,51.08402
901457.3,254.1628,247.3411,51.80089,51.041
901473.1,249.6318,247.1472,51.29899,51.01902
901490.1,245.4876,246.9222,50.83012,50.9935
901507.1,241.8846,246.8798,50.41467,50.98869
901522.8,238.0238,246.6485,49.96127,50.96242
901539.8,234.7705,246.7244,49.57246,50.97105
901556.3,231.5697,246.7487,49.18378,50.97381
901573.6,228.616,246.6665,48.81961,50.96447
901590.3,226.0038,246.4273,48.49308,50.93727
901607.4,223.7414,246.3887,48.20682,50.93288
901623.4,221.8004,246.2382,47.95864,50.91575
901647.8,219.8741,246.0736,47.70998,50.89699
901657.3,218.0208,245.886,47.46848,50.87561
901672.9,216.0933,245.7669,47.21493,50.86202
901690.4,214.346,245.6483,46.98298,50.84848
901707.3,212.7349,245.4885,46.7673,50.83023
901724.2,211.2224,245.2769,46.56323,50.80603
901741.4,209.9155,245.2492,46.38566,50.80286
901757.3,208.7392,245.1844,46.22485,50.79545
901773.9,207.6673,245.4172,46.07748,50.82207
901791.3,206.7676,245.6063,45.95317,50.84369
901807.9,206.2924,245.677,45.88728,50.85175
901825,205.8206,245.6789,45.82172,50.85197
901840.3,205.4158,245.7519,45.76535,50.86031
901862.3,205.0954,245.7593,45.72065,50.86115
901878.5,204.8911,245.6501,45.6921,50.84868
901892.8,204.7396,245.7001,45.67091,50.85439
901909.4,204.6463,245.6509,45.65787,50.84877
901924.3,204.5358,245.4874,45.64239,50.83009
901942.6,204.3145,245.4422,45.61139,50.82492
901958.8,204.1246,245.3857,45.58475,50.81847
901973.8,203.8738,245.2733,45.54954,50.80561
901991.8,203.5403,245.2684,45.50264,50.80505
902007.8,203.2258,245.3083,45.45835,50.80962
902024.3,202.8804,245.3297,45.40964,50.81207
902041.7,202.6102,245.5014,45.37146,50.8317
902059.6,202.4355,245.6817,45.34674,50.85229
902075.5,202.2229,245.7557,45.31665,50.86074
902092.3,201.9786,245.9266,45.28202,50.88023
902109.8,201.7827,246.0654,45.25421,50.89606
902125.8,201.5408,246.1968,45.21985,50.91104
902142.1,201.3121,246.3985,45.18733,50.93399
902159.9,201.0827,246.4547,45.15467,50.94039
902176.3,201.6787,246.6844,45.23945,50.96651
902192.4,201.7319,246.7497,45.24701,50.97392
902209.9,201.8095,246.8391,45.25802,50.98407
902226.2,201.9262,246.9524,45.27458,50.99694
902243.3,202.0404,246.9484,45.29079,50.99648
902260.1,202.1796,247.0594,45.3105,51.00907
902276.9,202.2845,247.2915,45.32537,51.03538
902292.9,202.4113,247.4922,45.34332,51.05811
902309.6,202.5578,247.6682,45.36404,51.07801
902327.6,202.6727,247.8432,45.38029,51.0978
902342.8,202.8152,247.9886,45.40042,51.11421
902360.1,202.9554,248.0652,45.42022,51.12286
902377,203.0846,248.2641,45.43845,51.1453
902394,203.2429,248.3344,45.46077,51.15322
902409,203.4532,248.4831,45.49039,51.16998
902426.2,203.6134,248.4943,45.51293,51.17124
902443.6,203.8367,248.5362,45.54433,51.17595
902461.9,203.9805,248.5483,45.56453,51.17732
902485.7,204.0695,248.4859,45.57702,51.17029
902495.1,204.1989,248.378,45.59518,51.15814
902508.8,204.3096,248.4094,45.61071,51.16168
902526.6,204.4031,248.5041,45.62381,51.17234
902542.1,204.5743,248.6364,45.64779,51.18724
902559.1,204.8608,248.7782,45.68787,51.20319
902586.7,205.1411,248.9839,45.72703,51.22631
902596.7,205.372,249.2859,45.75924,51.26022
902614.2,205.6871,249.7005,45.80314,51.30668
902632.8,205.9123,250.0114,45.83448,51.34146
902646.7,206.1909,250.3292,45.8732,51.37697
902661.4,206.4668,250.5903,45.91149,51.40609
902679.6,206.6642,250.8161,45.93885,51.43124
902693.2,206.8531,251.0609,45.96501,51.45849
902711.6,207.0151,251.2196,45.98742,51.47613
902727.7,207.1561,251.3045,46.00692,51.48557
902745.3,207.2908,251.3534,46.02552,51.491
902762.1,207.3329,251.4015,46.03134,51.49635
902778.3,207.3313,251.5448,46.03112,51.51225
902793.4,207.4086,251.7064,46.0418,51.53017
902811,207.4793,252.0245,46.05156,51.56541
902827.4,207.5541,252.2413,46.06186,51.58939
902843.9,207.6076,252.6138,46.06925,51.63055
902860.9,207.6711,253.0148,46.078,51.67477
902877.7,207.7411,253.4228,46.08765,51.71968
902894.5,207.9049,253.8155,46.11021,51.76281
902910.6,208.0341,254.0122,46.12799,51.78439
902927.8,208.2647,254.3107,46.15971,51.81709
902947.8,208.4564,254.3952,46.18604,51.82634
902962.5,208.7067,254.4389,46.22039,51.83112
902979,209.0794,254.373,46.27146,51.82391
902997.2,209.421,254.2764,46.31817,51.81333
903014.1,209.7771,254.1387,46.3668,51.79825
903029.9,210.1759,253.9637,46.42114,51.77907
903049.8,210.6373,254.0025,46.48389,51.78333
903066.7,211.0677,253.9742,46.54228,51.78022
903084.4,211.5519,254.0861,46.60782,51.79248
903099.7,212.1268,254.2949,46.68544,51.81536
903115.8,212.8736,254.5588,46.78593,51.84424
903133.6,213.6417,254.8903,46.8889,51.88045
903149.7,214.8593,255.3692,47.05133,51.93267
903168.2,216.0641,255.856,47.21107,51.98562
903183.9,217.4719,256.2612,47.39653,52.02961
903198.3,219.4468,256.6639,47.6545,52.07324
903214.4,221.4398,256.9593,47.91228,52.10518
903232.8,224.0659,257.2531,48.24807,52.13692
903248.1,226.0797,257.5053,48.50261,52.16412
903261.6,228.4577,257.7796,48.79995,52.19366
903278,230.8989,258.0752,49.10155,52.22546
903295.9,233.7179,258.4266,49.44533,52.26321
903312.8,236.1954,258.746,49.74353,52.29745
903328.4,239.1243,259.2827,50.09139,52.35488
903346.6,241.7885,259.8839,50.4035,52.41904
903363.1,244.8779,260.6994,50.76033,52.50577
903383.1,247.5948,261.5198,51.06971,52.59267
903398,250.599,262.366,51.40706,52.68195
903413.6,253.9807,263.2029,51.78093,52.76989
903433.1,257.1194,263.8365,52.12248,52.83623
903448.4,260.3387,264.2828,52.46745,52.88284
903465.1,264.2606,264.4535,52.88052,52.90063
903480.5,268.334,264.4724,53.30137,52.90261
903497.3,272.2083,264.2749,53.6941,52.88201
903511.4,277.6544,263.9122,54.23404,52.84414
903530.4,282.2961,263.5908,54.68334,52.81052
903546.1,287.9823,263.116,55.22052,52.76077
903563.9,293.0784,262.5547,55.68993,52.70181
903579.6,299.0181,261.6898,56.22318,52.61064
903596.2,306.1501,260.6419,56.84444,52.49966
903613.6,312.2919,259.9332,57.36343,52.42429
903629.6,319.7783,259.1638,57.97677,52.34217
903647.3,327.7337,258.3204,58.6063,52.25181
903664.3,334.2837,257.8057,59.10816,52.19647
903679.9,341.8103,257.4809,59.66725,52.16148
903697.4,348.7376,256.8995,60.16586,52.09872
903714.4,355.3596,256.2607,60.62875,52.02956
903730.8,361.2957,255.607,61.0327,51.95855
903753.2,366.0253,255.1244,61.34735,51.90599
903767.4,370.687,254.8358,61.65142,51.8745
903785.4,375.1165,254.5141,61.93491,51.83934
903802.3,379.3236,254.4665,62.19937,51.83413
903821.1,382.4478,254.5598,62.39281,51.84435
903830.3,385.8471,254.7909,62.60049,51.8696
903850.1,389.5196,254.9388,62.82164,51.88575
903868.4,392.2954,254.8623,62.98661,51.8774
903884.4,395.61,254.6624,63.18119,51.85556
903902.6,398.7675,254.5136,63.36416,51.83929
903921.1,400.7437,254.4888,63.47749,51.83658
903934.3,402.9857,254.4313,63.605,51.83028
903948.8,405.5063,254.2316,63.747,51.80843
903965.9,407.6886,254.1435,63.86879,51.79877
903983.8,409.5529,254.1675,63.97202,51.80141
904000.3,411.7191,254.0154,64.091,51.78474
904017.2,413.6974,253.7865,64.19878,51.75963
904033.6,415.7661,253.6776,64.3106,51.74767
904052.6,417.578,253.5841,64.4078,51.7374
904066.9,419.6489,253.2543,64.51805,51.70114
904083.9,421.9458,253.0014,64.63931,51.6733
904103.1,423.8316,252.916,64.73805,51.66389
904117.6,426.1354,252.6279,64.85772,51.63211
904133.4,428.5314,252.2495,64.98106,51.59031
904150.8,430.8361,251.8691,65.09863,51.5482
904168.2,433.0648,251.5126,65.21134,51.50867
904185.2,435.5777,250.9952,65.33729,51.45119
904203.3,437.6438,250.4267,65.43995,51.38785
904218.6,439.6438,249.9687,65.53856,51.33669
904234.9,441.4589,249.6862,65.62742,51.30508
904250.8,443.0957,249.3895,65.70702,51.27184
904267.6,444.7898,249.1351,65.7889,51.24329
904284.8,446.1789,249.0977,65.85566,51.2391
904303.3,447.0562,249.2882,65.89764,51.26048
904319.5,448.2838,249.3646,65.95615,51.26904
904336.9,448.651,249.6976,65.97361,51.30636
904354.1,448.9496,249.966,65.98778,51.33639
904370.8,448.9651,250.1679,65.98852,51.35895
904387.3,449.2841,250.4103,66.00364,51.38602
904405.9,449.1502,250.6483,65.99729,51.41255
904422.7,449.1663,250.7605,65.99805,51.42505
904438.5,449.2766,250.7669,66.00328,51.42577
904453.5,449.3166,250.7824,66.00518,51.42749
904469,449.3181,250.8571,66.00525,51.43581
904488.1,449.4137,250.886,66.00977,51.43903
904502.6,449.3984,250.9942,66.00905,51.45107
904518.7,449.5485,251.0672,66.01616,51.45919
904534.2,449.6883,251.1599,66.02277,51.4695
904551.2,449.9593,251.1624,66.03559,51.46978
904567.9,450.2034,251.142,66.04712,51.46751
904585.1,450.4754,251.0387,66.05996,51.45602
904602.3,450.7302,250.9015,66.07197,51.44075
904620.1,451.0507,250.7894,66.08707,51.42827
904633.7,451.4351,250.6551,66.10515,51.41331
904651.6,451.7185,250.5642,66.11846,51.40318
904668.4,452.0109,250.401,66.13218,51.38498
904686.3,452.2312,250.2693,66.14251,51.37028
904703.5,452.494,250.1873,66.15482,51.36113
904720.1,452.7614,250.1288,66.16734,51.35458
904737.5,453.1141,249.9873,66.18382,51.33878
904754.1,453.5721,249.8265,66.2052,51.32079
904770.5,454.1453,249.7458,66.2319,51.31176
904788.8,454.6614,249.7183,66.25589,51.30867
904806.3,455.0198,249.7657,66.27253,51.31398
904822.8,455.2944,249.7998,66.28526,51.3178
904839.7,455.5818,249.7083,66.29857,51.30756
904855.3,455.8145,249.6318,66.30933,51.29899
904872.4,455.9719,249.5408,66.31661,51.2888
904889.9,456.1244,249.527,66.32366,51.28725
904903.1,456.2787,249.3914,66.33079,51.27206
904920.4,456.3395,249.2344,66.3336,51.25444
904935.8,456.3963,249.0888,66.33621,51.23809
904951.8,456.4924,248.9591,66.34065,51.22353
904969.9,456.4548,249.0256,66.33891,51.23099
904991.4,456.4001,248.989,66.33639,51.22688
905003.8,456.2864,248.9917,66.33114,51.22719
905019.5,456.2007,248.9374,66.32719,51.22109
905036.6,456.097,248.8511,66.3224,51.21138
905053.6,455.9802,248.8457,66.317,51.21078
905069.6,455.8512,248.9334,66.31104,51.22064
905086.8,455.6695,248.9433,66.30263,51.22175
905104.2,455.4625,248.9517,66.29305,51.2227
905119.4,455.3383,248.8908,66.28729,51.21585
905139.7,455.26,248.8801,66.28366,51.21464
905151.9,455.058,248.8007,66.2743,51.20572
905170.4,454.8422,248.709,66.26429,51.1954
905186.3,454.6167,248.6768,66.25381,51.19178
905202.4,454.4718,248.7093,66.24709,51.19544
905219.3,454.2387,248.7827,66.23624,51.2037
905239.1,453.727,248.8975,66.21242,51.2166
905257.5,453.2193,248.8571,66.18873,51.21206
905273.4,452.6868,248.6458,66.16384,51.18829
905288.1,452.0634,248.337,66.13464,51.15352
905304.8,451.1844,247.9858,66.09335,51.1139
905321.4,450.3501,247.6024,66.05405,51.07057
905338.6,449.3238,247.3129,66.00552,51.0378
905352,448.3427,247.0076,65.95895,51.00319
905371.8,447.2215,246.5541,65.90553,50.9517
905388.8,446.3444,246.1656,65.86359,50.90748
905405.8,445.5144,245.7363,65.82377,50.85852
905421.4,444.6408,245.1893,65.78172,50.796
905438.8,443.8767,244.8066,65.74483,50.75216
905454.4,443.045,244.3476,65.70457,50.69946
905473.4,442.264,243.9467,65.66663,50.65335
905491.1,441.5554,243.6437,65.63212,50.61842
905505.7,440.7208,243.3852,65.59135,50.5886
905524.2,440.0908,243.3121,65.5605,50.58016
905540.1,439.3737,243.434,65.52528,50.59423
905556.1,438.5488,243.7343,65.48466,50.62887
905572.3,437.7076,243.9236,65.44311,50.65068
905592.7,436.6345,244.1236,65.3899,50.6737
905612.9,436.0234,244.199,65.3595,50.68238
905626.4,435.3609,244.3979,65.32647,50.70525
905641,434.7441,244.4846,65.29565,50.71521
905656.4,433.9198,244.6064,65.25433,50.72919
905671.9,432.9309,244.7031,65.2046,50.74029
905690.1,432.0238,244.7854,65.15881,50.74973
905707.5,431.1297,244.7271,65.11353,50.74303
905722.9,430.2134,244.792,65.06696,50.75049
905739.7,429.3507,244.7417,65.02297,50.74472
905755.2,428.5507,244.626,64.98205,50.73144
905771.6,427.9308,244.4755,64.95025,50.71416
905788.7,427.3919,244.3823,64.92254,50.70346
905808.8,426.9704,244.3099,64.90083,50.69513
905822.4,426.2316,244.2726,64.86269,50.69084
905847.1,425.9821,244.2567,64.84979,50.68902
905855.6,425.4921,244.3544,64.82441,50.70025
905870.4,424.793,244.4546,64.78812,50.71176
905888.4,424.0081,244.6282,64.74726,50.73169
905906,422.9802,245.001,64.69356,50.77444
905923.7,421.8104,245.4345,64.63219,50.82405
905939.4,420.6294,245.9548,64.56994,50.88346
905955.2,419.213,246.5627,64.49492,50.95267
905971.6,417.369,247.534,64.39662,51.06284
905992.8,415.7105,248.4873,64.3076,51.17046
906005,413.7363,249.6519,64.20089,51.30124
906022.3,411.2148,251.1659,64.06339,51.47017
906039.8,408.8458,252.6316,63.93295,51.63251
906056,406.1276,254.3139,63.78178,51.81744
906072.7,402.9559,256.2451,63.60331,52.02787
906092.2,399.9196,258.1219,63.43034,52.23048
906106.7,396.6337,260.3217,63.24077,52.46564
906123.5,393.5377,262.7496,63.05984,52.7223
906140.1,390.6795,265.1273,62.8908,52.97075
906156.6,387.5937,267.8371,62.70607,53.25047
906172.9,384.1644,271.049,62.49805,53.57734
906194,381.8618,273.4563,62.35672,53.81908
906207.2,379.4164,276.0462,62.20515,54.07606
906224.6,376.9719,278.6746,62.0521,54.33364
906245.1,375.1632,280.7734,61.93786,54.53704
906260.6,373.136,283.1538,61.8088,54.76529
906282.4,371.1714,285.3683,61.68267,54.97536
906298.9,369.545,287.1974,61.57748,55.14722
906309.6,367.7947,289.1202,61.46347,55.3263
906326.4,365.7754,291.3322,61.33089,55.53035
906344.1,363.7253,293.4525,61.19512,55.72396
906363.7,360.8037,296.442,60.99961,55.99371
906387.2,358.4759,298.5463,60.84208,56.18136
906403.7,356.1818,300.3097,60.68531,56.33721
906417.1,354.4547,301.5739,60.56626,56.44816
906426.6,352.2534,303.2402,60.41326,56.59343
906442,350.0004,304.8361,60.25515,56.73151
906460.2,347.6829,306.3276,60.0909,56.85965
906477.5,345.6114,307.6379,59.94269,56.9715
906493.5,343.2616,308.9852,59.77295,57.08582
906513.6,341.2861,309.9904,59.6289,57.17065
906525.7,339.1796,311.066,59.47393,57.261
906542.7,337.1564,312.1273,59.32373,57.34971
906558.9,335.1717,313.083,59.17509,57.42923
906576.3,333.2678,314.0253,59.03128,57.50729
906591.6,331.4153,314.9231,58.89017,57.58136
906608.6,329.6723,315.5063,58.75636,57.62932
906626.1,327.8894,315.9879,58.6184,57.66882
906641.2,325.7742,316.4425,58.45332,57.70604
906668.2,324.2745,316.919,58.33532,57.74495
906676.8,322.6988,317.3227,58.21048,57.77787
906691.4,321.0544,317.733,58.07927,57.81126
906707.8,319.6295,318.0265,57.96478,57.8351
906725.4,318.1344,318.2296,57.84386,57.85158
906742.8,316.2454,318.4958,57.68991,57.87316
906766.2,315.5598,318.6328,57.63371,57.88425
906777.4,314.2086,318.9429,57.52243,57.90935
906804.8,312.8041,319.194,57.40606,57.92964
906816.4,312.2603,319.2956,57.3608,57.93784
906826.2,311.1209,319.4139,57.26559,57.9474
906846.8,310.2868,319.5395,57.19559,57.95752
906861.1,309.493,319.5618,57.12872,57.95932
906876.1,308.6146,319.5493,57.05444,57.95831
906894.8,307.4481,319.5017,56.95534,57.95447
906913.4,306.7747,319.3768,56.89789,57.94439
906927.1,305.9117,319.2934,56.82401,57.93766
906942.1,305.0201,319.1763,56.74736,57.92821
906959.1,304.1718,319.1192,56.67416,57.9236
906979.3,303.2922,319.01,56.59794,57.91477
906994.9,302.472,318.9738,56.5266,57.91184
907010,301.5691,318.9728,56.44775,57.91176
907024.9,300.2755,319.1108,56.3342,57.92292
907044.4,299.0471,319.3061,56.22575,57.93869
907059.6,297.7382,319.3012,56.10951,57.9383
907075.4,295.1855,319.3514,55.88079,57.94234
907091.3,291.5576,319.6619,55.55101,57.96739
907108.6,287.0455,320.1076,55.13301,58.00327
907125.4,282.8183,320.4603,54.73328,58.03162
907142.3,278.3109,320.9579,54.29819,58.07154
907160.4,273.7886,321.14,53.85223,58.08612
907176.6,270.144,320.8082,53.48576,58.05954
907193.1,267.5078,320.2814,53.21668,58.01725
907209.8,265.6106,319.4161,53.02091,57.94757
907227.1,263.6246,318.9977,52.81406,57.91377
907243.2,262.0551,318.7611,52.64919,57.89464
907260.8,260.8541,318.5236,52.52217,57.87541
907277.1,259.8136,318.5066,52.41155,57.87403
907292.9,259.2164,318.3222,52.3478,57.85909
907311.1,258.8199,318.1157,52.30537,57.84233
907327,258.9131,317.9615,52.31535,57.82982
907343.5,258.8004,317.6916,52.30328,57.80788
907368.9,259.0944,317.3041,52.33475,57.77635
907383.3,259.32,316.9512,52.35888,57.74759
907397.1,259.5888,316.5483,52.38757,57.71469
907412.4,259.9892,316.0471,52.43026,57.67367
907428.2,260.2205,315.6542,52.45487,57.64146
907444.3,260.3921,315.1345,52.47313,57.59876
907460.9,260.4911,314.6425,52.48365,57.55825
907476.9,260.6268,314.1247,52.49806,57.5155
907494.7,260.6298,313.5533,52.49838,57.46823
907512.3,260.5609,313.1116,52.49106,57.43159
