Time Stamp(ms),Intersection,,Angle,
,x,y,x,y
1700953,317.1904,243.2915,57.76709,50.57778
1700990,317.0862,243.07,57.75859,50.55217
1701019,317.6516,242.9276,57.80463,50.53569
1701048,318.4261,243.3233,57.86752,50.58144
1701083,318.9923,243.0648,57.91334,50.55157
1701119,319.7136,242.1839,57.97155,50.44946
1701144,320.5208,241.8575,58.03647,50.41153
1701181,320.8206,242.4806,58.06053,50.4839
1701207,320.4587,243.8283,58.03149,50.63971
1701240,319.6436,245.0455,57.96592,50.77954
1701274,318.713,245.2411,57.89075,50.80193
1701306,318.4822,244.6714,57.87206,50.73664
1701340,318.6115,244.2977,57.88253,50.69373
1701372,318.5144,244.4728,57.87467,50.71385
1701405,317.8195,244.923,57.81829,50.7655
1701438,316.9039,244.9872,57.74372,50.77287
1701471,316.2057,244.8749,57.68666,50.75999
1701500,315.9583,244.6227,57.6664,50.73106
1701520,315.7675,244.3783,57.65075,50.70299
1701537,315.6408,244.17,57.64036,50.67905
1701554,315.5509,243.8482,57.63298,50.642
1701574,315.4331,243.4967,57.62331,50.60147
1701593,315.2335,243.0784,57.6069,50.55314
1701613,314.9122,242.6974,57.58046,50.50903
1701632,314.5367,242.2491,57.54952,50.45704
1701651,313.975,241.961,57.50313,50.42356
1701670,313.2177,241.8585,57.44041,50.41164
1701688,311.6427,241.9329,57.30925,50.4203
1701721,308.686,242.1742,57.06049,50.44834
1701760,305.3525,242.4313,56.77598,50.47818
1701789,302.0133,242.5928,56.48658,50.49691
1701818,297.9309,242.8025,56.12667,50.52122
1701853,293.4026,243.1044,55.71942,50.55615
1701884,288.1739,243.5037,55.23837,50.60227
1701917,282.6963,244.139,54.72163,50.67548
1701948,276.4675,245.2311,54.11756,50.80078
1701989,270.2656,246.4065,53.49808,50.93491
1702019,264.2586,247.392,52.88031,51.04676
1702044,257.7814,248.1175,52.19386,51.12877
1702079,251.4401,248.7217,51.50062,51.19683
1702117,246.2193,249.2847,50.9136,51.26009
1702147,242.1685,249.8348,50.44768,51.32172
1702183,239.2504,250.0294,50.10625,51.34348
1702211,236.8148,250.1745,49.81751,51.35969
1702244,235.2391,250.5009,49.62885,51.39612
1702277,234.0054,250.8004,49.48011,51.4295
1702309,233.1904,251.0941,49.38136,51.46218
1702341,232.6414,251.3469,49.31461,51.49028
1702378,232.2816,251.4189,49.27076,51.49827
1702409,232.0874,251.5088,49.24707,51.50825
1702440,232.141,251.5749,49.25361,51.51559
1702470,232.4716,251.5867,49.29393,51.5169
1702504,232.8539,251.4861,49.34047,51.50573
1702537,233.2181,251.4347,49.38472,51.50003
1702569,233.4285,251.552,49.41024,51.51305
1702603,233.7554,251.7748,49.44986,51.53775
1702635,233.984,252.0971,49.47753,51.57345
1702667,234.2298,252.3157,49.50724,51.59763
1702700,234.3491,252.6987,49.52164,51.63992
1702732,233.9856,252.3494,49.47772,51.60135
1702762,233.7611,252.0782,49.45056,51.57136
1702797,233.5276,251.9404,49.42226,51.5561
1702832,233.285,251.7743,49.39283,51.5377
1702862,233.1473,251.6985,49.37612,51.52929
1702893,233.0464,252.0453,49.36387,51.56771
1702925,232.8633,252.8322,49.34161,51.65465
1702968,232.6919,253.8506,49.32075,51.76666
1702999,232.6775,256.3758,49.319,52.04204
1703028,233.4531,260.6092,49.41323,52.49619
1703061,234.8645,266.5043,49.58379,53.11335
1703102,235.4356,270.2494,49.65246,53.49644
1703127,235.7798,274.2267,49.69376,53.89584
1703159,235.7345,278.003,49.68833,54.26813
1703192,235.1983,281.0026,49.62395,54.55913
1703225,234.2525,284.2751,49.50998,54.87193
1703258,233.0734,287.4035,49.36715,55.1665
1703289,231.8573,290.3432,49.21896,55.43938
1703322,230.6,293.4791,49.06482,55.72637
1703354,229.4026,296.2564,48.91712,55.97707
1703384,228.3901,298.08,48.79154,56.13993
1703417,227.6495,299.5264,48.69929,56.26814
1703449,227.1111,300.3605,48.632,56.34169
1703483,226.8357,300.7849,48.59753,56.37899
1703515,226.6801,300.8242,48.57803,56.38245
1703548,226.5004,301.1842,48.55547,56.41403
1703581,226.3764,301.5081,48.53991,56.44241
1703614,226.2698,301.8926,48.52652,56.47604
1703644,226.2232,302.3585,48.52066,56.5167
1703680,226.3996,302.3465,48.54282,56.51566
1703711,226.9559,301.9498,48.61258,56.48103
1703742,228.8696,300.6329,48.85109,56.36564
1703775,232.3438,298.9835,49.27835,56.22012
1703807,238.257,297.042,49.98891,56.0474
1703840,245.5631,295.4308,50.83875,55.90289
1703871,253.6061,294.0611,51.73982,55.77917
1703904,262.0594,293.379,52.64965,55.71727
1703936,270.3206,292.4666,53.50366,55.63417
1703969,278.972,291.42,54.36258,55.53839
1704002,288.0623,290.033,55.22797,55.41076
1704034,297.5238,288.4477,56.0904,55.26385
1704066,306.6744,286.8438,56.88932,55.11411
1704099,315.4972,285.2309,57.62857,54.96239
1704133,324.3717,283.8575,58.34299,54.83228
1704164,331.5965,282.8362,58.90403,54.73499
1704197,337.863,281.634,59.37634,54.61986
1704228,343.7168,280.5652,59.80597,54.51696
1704262,349.1373,279.3128,60.19417,54.39571
1704295,354.2662,278.0346,60.55322,54.27121
1704328,359.4547,276.8669,60.90851,54.15683
1704361,364.3535,275.8756,61.23685,54.05923
1704392,368.5146,275.1313,61.51046,53.98564
1704424,372.3223,274.479,61.75669,53.92093
1704457,375.6746,273.8146,61.97025,53.85481
1704486,378.6093,272.6215,62.15479,53.73556
1704520,381.731,271.2286,62.34864,53.59548
1704558,384.2197,269.8139,62.50142,53.45225
1704589,385.9593,268.8213,62.60729,53.35117
1704621,387.2225,268.0562,62.6837,53.27293
1704655,387.813,267.6764,62.71928,53.23399
1704687,387.9573,267.5135,62.72796,53.21727
1704718,387.8828,267.5984,62.72348,53.22598
1704749,387.6945,267.7136,62.71215,53.2378
1704785,387.5751,267.7557,62.70495,53.24213
1704820,387.5027,267.7769,62.70059,53.2443
1704849,387.4213,267.6635,62.69569,53.23267
1704883,387.3427,267.5668,62.69094,53.22274
1704916,387.3646,267.6597,62.69227,53.23228
1704948,387.2524,267.838,62.6855,53.25057
1704982,387.1616,267.9781,62.68002,53.26492
1705019,387.1193,268.2449,62.67747,53.29225
1705046,387.0443,268.5171,62.67294,53.3201
1705086,387.0854,268.6855,62.67542,53.33731
1705115,387.1364,268.5964,62.6785,53.3282
1705146,387.1623,268.3243,62.68006,53.30038
1705180,387.0999,268.3365,62.6763,53.30163
1705211,387.1109,268.4562,62.67696,53.31387
1705242,387.2046,268.636,62.68262,53.33225
1705277,387.2418,268.89,62.68486,53.35818
1705308,387.2431,268.876,62.68494,53.35676
1705341,387.1447,268.6726,62.679,53.33599
1705374,386.9604,268.6581,62.66788,53.3345
1705407,386.7168,268.5368,62.65316,53.32211
1705437,386.5464,268.3232,62.64285,53.30027
1705470,386.4674,268.3195,62.63807,53.29989
1705495,386.4381,268.233,62.6363,53.29104
1705514,386.4232,268.1168,62.6354,53.27914
1705534,386.4526,267.9704,62.63718,53.26414
1705553,386.4534,267.7676,62.63723,53.24335
1705572,386.4078,267.5136,62.63446,53.21727
1705591,386.2809,266.9543,62.62678,53.15974
1705610,386.2065,266.0812,62.62227,53.06963
1705634,386.1791,265.132,62.62061,52.97125
1705651,386.1314,263.936,62.61773,52.84663
1705670,386.0485,262.4147,62.6127,52.68707
1705697,385.6928,259.5919,62.59112,52.38791
1705722,385.0545,255.4646,62.55232,51.94305
1705759,384.4047,252.1606,62.51272,51.58047
1705787,383.7748,249.4397,62.47422,51.27746
1705820,383.2961,247.666,62.4449,51.07776
1705854,383.0405,246.6084,62.42923,50.95786
1705889,382.8997,245.9135,62.42058,50.87874
1705919,382.7768,245.5154,62.41304,50.83329
1705950,382.7132,245.3295,62.40913,50.81205
1705985,382.655,245.2033,62.40555,50.7976
1706015,382.6917,244.9989,62.40781,50.7742
1706053,382.5941,244.7835,62.40181,50.74951
1706084,382.4923,244.3193,62.39555,50.69622
1706117,382.3636,243.6923,62.38763,50.62403
1706155,382.3233,243.239,62.38515,50.57171
1706184,382.3013,242.9589,62.38379,50.53932
1706214,382.1853,242.7487,62.37665,50.51499
1706249,381.7231,242.8085,62.34816,50.5219
1706283,381.0182,242.8346,62.3046,50.52493
1706316,380.2008,242.9998,62.25393,50.54406
1706346,379.3046,242.9281,62.19818,50.53576
1706379,378.5197,242.3767,62.14919,50.47185
1706415,377.7878,241.6812,62.10336,50.391
1706446,377.184,241.0856,62.06544,50.32155
1706481,376.6873,240.895,62.03418,50.29928
1706505,376.3225,240.8618,62.01118,50.2954
1706523,375.9674,240.8874,61.98877,50.29839
1706540,375.6308,241.0351,61.96748,50.31565
1706559,375.2129,241.124,61.94101,50.32603
1706580,374.7021,241.3581,61.9086,50.35336
1706600,374.1757,241.5576,61.87513,50.37661
1706619,373.6146,241.7246,61.83937,50.39606
1706638,373.0427,241.9062,61.80283,50.41719
1706658,372.4648,242.1038,61.76582,50.44016
1706675,371.7769,242.2694,61.72166,50.4594
1706700,370.5385,242.4487,61.64182,50.48021
1706734,369.0513,242.4342,61.5454,50.47852
1706768,367.1098,242.5842,61.41862,50.49592
1706801,363.8883,242.4297,61.20596,50.478
1706835,359.0234,242.3096,60.87928,50.46407
1706863,353.5028,242.2413,60.50028,50.45613
1706897,347.6096,242.3477,60.08568,50.46849
1706929,341.6158,242.9048,59.65303,50.53305
1706964,335.8937,243.4608,59.22931,50.59732
1706995,331.0141,243.861,58.85947,50.64347
1707031,326.3291,244.4017,58.49677,50.70568
1707061,323.304,245.0608,58.25853,50.78129
1707095,320.6849,245.836,58.04965,50.8699
1707126,318.6157,246.6699,57.88287,50.96485
1707160,317.0241,247.2714,57.75353,51.0331
1707191,315.92,247.7457,57.66326,51.08678
1707224,315.0092,248.2749,57.58845,51.14652
1707260,314.2368,248.726,57.52477,51.19732
1707289,313.6259,248.878,57.47424,51.21441
1707321,313.0946,249.086,57.43019,51.23779
1707355,312.7803,249.6871,57.40408,51.30518
1707390,312.6038,250.1439,57.3894,51.35627
1707421,312.5963,250.5304,57.38877,51.39941
1707456,312.5792,250.9655,57.38735,51.44788
1707488,312.5021,251.2834,57.38094,51.48322
1707518,312.3523,251.6981,57.36846,51.52925
1707550,312.0776,252.1106,57.34556,51.57494
1707581,311.677,252.3242,57.31211,51.59856
1707613,311.0829,252.3113,57.26241,51.59714
1707649,310.3412,252.2077,57.20017,51.58568
1707682,309.4536,252.3433,57.1254,51.60068
1707714,308.5732,252.4868,57.05094,51.61653
1707743,307.2691,252.6329,56.94009,51.63266
1707777,305.4582,252.7067,56.78506,51.6408
1707814,302.2047,253.0086,56.50329,51.67409
1707841,297.5638,253.8477,56.09397,51.76634
1707875,292.6581,254.5864,55.65164,51.84725
1707906,287.2358,255.2669,55.15082,51.92153
1707940,282.3193,255.4709,54.68557,51.94374
1707972,277.7016,255.4222,54.23866,51.93845
1708007,273.4385,255.3671,53.8173,51.93244
1708040,269.6545,255.1933,53.43605,51.91351
1708074,266.3683,254.8997,53.09932,51.88148
1708107,263.1646,254.623,52.76587,51.85125
1708138,259.6831,254.7657,52.39763,51.86685
1708174,256.3309,255.133,52.03717,51.90693
1708203,253.0459,255.5506,51.6782,51.95242
1708236,249.6225,255.8353,51.29795,51.98338
1708269,245.9191,255.7154,50.87938,51.97035
1708301,242.5648,255.4238,50.49368,51.93861
1708334,239.6346,254.9945,50.15149,51.89183
1708367,237.5387,254.5709,49.90369,51.84556
1708400,235.8798,254.2935,49.70574,51.81521
1708431,234.8248,253.892,49.579,51.77121
1708465,234.0493,253.5977,49.48542,51.7389
1708496,233.501,253.1735,49.41904,51.69225
1708529,233.0681,252.6297,49.36651,51.63231
1708564,233.0559,252.4133,49.36502,51.60841
1708595,233.349,252.5822,49.4006,51.62706
1708627,234.0667,252.6005,49.48753,51.62909
1708659,234.8279,252.9169,49.57938,51.66399
1708691,235.4848,253.2007,49.65837,51.69524
1708725,235.8983,253.2075,49.70795,51.696
1708758,236.1133,253.0771,49.7337,51.68163
1708787,236.1474,252.9166,49.73778,51.66396
1708821,235.9315,252.5461,49.71194,51.62307
1708855,235.4969,252.091,49.65981,51.57278
1708888,235.1457,251.6366,49.61762,51.52243
1708921,234.7747,251.5148,49.57296,51.50891
1708953,234.566,251.2703,49.54782,51.48177
1708986,234.5525,251.1159,49.54619,51.4646
1709021,234.6773,251.0756,49.56123,51.46012
1709057,234.8612,250.8677,49.58339,51.43699
1709098,234.9977,250.7505,49.59982,51.42394
1709121,234.9002,250.7037,49.58809,51.41872
1709154,234.5605,250.6454,49.54715,51.41224
1709187,234.1531,250.6465,49.49797,51.41235
1709220,233.7604,250.8411,49.45047,51.43404
1709253,233.3516,251.0875,49.40092,51.46144
1709287,232.9413,251.1022,49.35109,51.46309
1709319,232.6024,250.9614,49.30986,51.44742
1709346,232.2486,250.9633,49.26674,51.44764
1709382,231.9587,250.9519,49.23135,51.44637
1709416,231.681,251.164,49.1974,51.46995
1709444,231.4115,251.6458,49.16442,51.52345
1709475,231.0692,252.0107,49.12245,51.56388
1709508,230.7525,252.4149,49.08356,51.60859
1709542,230.4434,252.4677,49.04555,51.61442
1709573,230.0221,252.4758,48.99363,51.61531
1709608,229.6458,252.1631,48.94719,51.58075
1709642,229.4992,251.7693,48.92906,51.53714
1709674,229.486,252.022,48.92743,51.56513
1709706,229.5907,252.2741,48.94037,51.59303
1709739,229.6409,252.5626,48.94658,51.6249
1709770,229.5159,252.6115,48.93113,51.6303
1709802,229.2802,252.5414,48.90196,51.62256
1709836,229.0668,252.4183,48.87554,51.60896
1709867,228.911,252.2507,48.85622,51.59044
1709903,228.8472,252.2759,48.84831,51.59322
1709933,229.085,252.8608,48.87779,51.65781
1709965,229.2397,253.338,48.89695,51.71035
1709998,229.334,253.6894,48.90863,51.74897
1710031,229.3626,253.9394,48.91216,51.7764
1710062,229.2599,253.9622,48.89946,51.77891
1710091,229.2293,254.1941,48.89567,51.80432
1710124,229.2757,254.5178,48.90141,51.83974
1710162,229.3862,254.8089,48.91509,51.87156
1710194,229.3512,255.044,48.91075,51.89722
1710221,229.2711,255.3055,48.90084,51.92573
1710255,229.2531,255.2722,48.89861,51.9221
1710292,229.239,255.293,48.89687,51.92437
1710325,229.2341,255.1951,48.89626,51.9137
1710348,229.2404,255.1194,48.89704,51.90545
1710371,229.2054,255.2054,48.89271,51.91483
1710393,229.207,255.3505,48.8929,51.93063
1710417,229.2621,255.5517,48.89973,51.95253
1710450,229.3013,255.6366,48.90459,51.96177
1710480,229.3337,255.7444,48.90859,51.9735
1710511,229.3946,255.8932,48.91613,51.98967
1710544,229.5278,255.824,48.9326,51.98215
1710578,229.6259,255.9008,48.94473,51.99049
1710609,229.7532,256.1087,48.96045,52.01307
1710643,229.8831,256.3427,48.97649,52.03845
1710674,230.0837,256.493,49.00124,52.05473
1710720,230.3159,256.7715,49.02985,52.08488
1710750,230.5476,256.6901,49.05837,52.07607
1710777,230.8181,256.784,49.09161,52.08623
1710809,231.1453,257.0889,49.13179,52.11919
1710840,231.6839,257.5048,49.19776,52.16406
1710875,232.1649,258.1336,49.25653,52.23174
1710906,232.6526,258.7794,49.31597,52.30103
1710939,232.9942,258.9801,49.35753,52.32253
