Time Stamp(ms),Intersection,,Angle,
,x,y,x,y
1181510,315.065,249.9333,57.59304,51.33274
1181526,315.109,249.958,57.59666,51.33549
1181544,315.2507,249.881,57.60831,51.32688
1181562,315.5174,249.688,57.63023,51.30528
1181578,315.8187,249.4988,57.65495,51.28409
1181597,316.213,249.3281,57.68726,51.26495
1181614,316.6932,249.3313,57.72652,51.26532
1181630,317.1543,249.6628,57.76414,51.30246
1181647,317.6814,250.0388,57.80706,51.34453
1181663,318.1273,250.0781,57.84328,51.34892
1181682,318.341,249.9046,57.86061,51.32952
1181693,318.5828,249.4617,57.88021,51.27993
1181710,318.864,249.0981,57.90296,51.23914
1181727,319.252,248.7582,57.93432,51.20094
1181750,319.7863,248.7367,57.97742,51.19853
1181764,320.0594,248.8494,57.9994,51.2112
1181778,320.1849,249.3828,58.00949,51.27109
1181794,320.1591,249.9838,58.00741,51.33839
1181811,319.9443,250.5366,57.99014,51.4001
1181827,319.3914,251.4047,57.94558,51.4967
1181848,318.8071,252.2324,57.89836,51.58842
1181862,318.0995,253.0759,57.84102,51.6815
1181878,317.2344,253.701,57.77067,51.75025
1181896,316.5176,254.0571,57.71217,51.78931
1181910,315.8235,253.8307,57.65535,51.76448
1181928,315.4262,253.4375,57.62274,51.7213
1181944,315.1678,252.7251,57.6015,51.64284
1181961,314.9771,252.2414,57.58581,51.58941
1181978,314.8594,251.8893,57.57612,51.55043
1181997,314.6346,251.7323,57.55759,51.53304
1182014,314.2353,251.7607,57.52464,51.53619
1182029,313.5667,251.9073,57.46933,51.55244
1182047,312.7464,252.2037,57.40125,51.58524
1182063,311.9603,252.4527,57.33577,51.61276
1182078,311.1027,252.6807,57.26407,51.63794
1182094,309.6863,252.8155,57.14502,51.65281
1182113,308.2675,252.7457,57.02501,51.6451
1182129,306.7363,252.5864,56.89461,51.62753
1182145,304.7303,252.3413,56.72239,51.60045
1182162,302.1378,252.1501,56.49745,51.57932
1182178,299.4255,252.165,56.25922,51.58096
1182194,295.8861,252.3576,55.94383,51.60226
1182211,291.561,252.7647,55.55133,51.64721
1182227,286.2601,253.3056,55.05934,51.70678
1182245,281.9249,253.742,54.64777,51.75475
1182263,277.0166,254.4094,54.17153,51.82789
1182278,272.4926,255.1452,53.72263,51.90826
1182295,267.6566,255.9301,53.23196,51.99367
1182313,262.5801,256.6255,52.70448,52.06908
1182329,257.6687,257.388,52.18172,52.15147
1182345,252.2577,258.4312,51.59121,52.26369
1182363,247.2969,259.5784,51.036,52.38647
1182379,242.9888,260.6238,50.54278,52.49774
1182395,238.3325,261.7786,49.99784,52.62001
1182412,234.2585,262.7078,49.5107,52.7179
1182429,230.6639,263.47,49.07267,52.79787
1182445,227.644,264.0895,48.6986,52.86266
1182463,224.5774,264.7004,48.31297,52.92636
1182478,221.5443,265.3611,47.92572,52.99503
1182495,218.4774,266.0439,47.52819,53.06577
1182513,215.713,266.6645,47.16461,53.12988
1182528,212.9908,267.3316,46.80167,53.19857
1182545,210.2832,268.1029,46.43574,53.27772
1182562,207.6999,268.8871,46.08197,53.35789
1182581,205.3255,269.6383,45.75276,53.4344
1182596,202.7032,270.438,45.38461,53.51555
1182613,199.9437,271.3106,44.99194,53.60376
1182633,197.2337,272.2479,44.60101,53.69808
1182650,194.5805,273.378,44.2131,53.81126
1182668,192.2175,274.3701,43.86326,53.9101
1182684,190.4043,275.1859,43.59202,53.99104
1182701,188.7086,275.9689,43.33611,54.06843
1182717,187.207,276.7187,43.10768,54.14227
1182734,185.6282,277.3943,42.86566,54.20857
1182750,184.7115,277.8425,42.72425,54.25245
1182767,183.693,278.2893,42.56638,54.29608
1182784,182.8374,278.657,42.43314,54.33193
1182807,182.1994,278.9957,42.33342,54.36489
1182818,181.7566,279.1648,42.26403,54.38132
1182830,181.2972,279.3774,42.19186,54.40198
1182848,180.7041,279.591,42.09846,54.4227
1182869,180.216,279.7174,42.02138,54.43495
1182881,179.7524,279.9232,41.948,54.45489
1182898,179.2538,280.2006,41.86889,54.48173
1182917,178.9635,280.5058,41.82274,54.51122
1182932,178.7294,280.7567,41.78548,54.53543
1182948,178.6427,280.8573,41.77166,54.54512
1182964,178.5437,280.9618,41.75589,54.5552
1182982,178.5514,280.9776,41.7571,54.55672
1182999,178.6176,280.9134,41.76766,54.55053
1183015,178.7172,280.8179,41.78353,54.54132
1183032,178.8589,280.732,41.8061,54.53304
1183049,178.9694,280.6913,41.82367,54.52911
1183065,179.1485,280.5479,41.85215,54.51529
1183085,179.4517,280.4397,41.90031,54.50483
1183101,179.7503,280.313,41.94767,54.49259
1183115,179.9804,280.3047,41.9841,54.49179
1183131,180.2388,280.1054,42.02498,54.47252
1183148,180.602,279.8738,42.08235,54.45011
1183165,180.9834,279.6287,42.14249,54.42635
1183182,181.5793,279.3205,42.23621,54.39645
1183198,182.3585,278.9326,42.35832,54.35875
1183218,183.1344,278.608,42.47947,54.32716
1183234,184.5636,278.17,42.70138,54.28444
1183252,185.6722,277.8181,42.87243,54.25005
1183267,186.9218,277.4238,43.0641,54.21146
1183284,188.1562,276.9255,43.25228,54.16259
1183303,189.2199,276.5586,43.4135,54.12653
1183314,190.6597,276.1361,43.63037,54.08492
1183331,192.167,275.748,43.85575,54.04663
1183347,193.6057,275.4896,44.06928,54.0211
1183364,195.3584,275.2362,44.32736,53.99602
1183382,197.0847,274.9902,44.57936,53.97166
1183399,198.9354,274.9214,44.8471,53.96484
1183415,200.7207,274.7899,45.10305,53.9518
1183433,202.6704,274.7821,45.37996,53.95102
1183451,204.6718,274.9187,45.66143,53.96457
1183467,206.802,275.0642,45.95794,53.97899
1183486,208.8432,275.3076,46.2391,54.00309
1183500,211.3283,275.7281,46.57758,54.04466
1183519,214.0343,276.404,46.94139,54.11131
1183536,216.5896,277.2752,47.28046,54.1969
1183553,219.0639,278.1711,47.60468,54.28455
1183567,221.91,279.2119,47.97272,54.3859
1183588,224.5191,280.0942,48.30558,54.47144
1183600,226.9416,280.8256,48.61079,54.54207
1183618,229.3732,281.55,48.91347,54.61179
1183633,232.3971,282.4983,49.28484,54.7027
1183651,235.0082,283.1639,49.60109,54.76626
1183666,237.902,283.9009,49.94683,54.83641
1183684,240.2998,284.7573,50.22961,54.91762
1183701,242.3333,285.6638,50.46681,55.00323
1183717,244.4126,286.6189,50.70693,55.09303
1183734,246.552,287.5033,50.95146,55.17582
1183753,248.5279,288.3277,51.17503,55.25269
1183768,250.513,288.8546,51.39747,55.30167
1183787,252.6171,289.3927,51.63091,55.35155
1183801,254.6149,289.7457,51.85037,55.38421
1183818,256.4106,290.1756,52.04581,55.42392
1183833,258.363,290.7504,52.25638,55.47688
1183850,260.2395,291.2936,52.4569,55.5268
1183867,262.0703,291.8832,52.65079,55.58084
1183886,263.9123,292.5258,52.84415,55.63956
1183900,265.6666,293.1011,53.02671,55.692
1183917,267.548,293.7779,53.2208,55.7535
1183936,269.6016,294.422,53.43067,55.81185
1183955,271.3513,295.0048,53.60786,55.86449
1183970,273.0165,295.5275,53.77512,55.91159
1183987,274.6033,296.0238,53.93328,55.9562
1184003,276.2541,296.5561,54.09655,56.00393
1184020,278.2015,297.0957,54.28752,56.0522
1184045,279.468,297.3395,54.41076,56.07397
1184056,280.6361,297.5794,54.5238,56.09536
1184069,282.3442,297.9375,54.68795,56.12726
1184094,283.3708,298.11,54.78597,56.1426
1184104,284.524,298.2321,54.89552,56.15345
1184121,285.6263,298.2651,54.99969,56.15639
1184137,286.6348,298.3958,55.09451,56.168
1184151,287.8192,298.4954,55.20531,56.17685
1184172,288.8614,298.5879,55.3023,56.18505
1184188,289.806,298.7336,55.38979,56.19798
1184203,290.8448,298.8043,55.48556,56.20424
1184220,291.841,298.972,55.57698,56.2191
1184237,292.9512,299.0603,55.67835,56.22692
1184256,294.0705,299.1326,55.78002,56.23332
1184271,295.3886,299.1511,55.89909,56.23495
1184289,296.7862,299.1563,56.02453,56.23541
1184307,298.1761,299.041,56.14848,56.22521
1184323,299.4638,298.9311,56.26261,56.21548
1184339,300.6996,298.8098,56.3715,56.20473
1184353,302.0797,298.7044,56.49237,56.19538
1184371,303.4752,298.6497,56.61382,56.19054
1184389,304.9394,298.6335,56.74041,56.1891
1184406,306.3721,298.5612,56.86346,56.18269
1184424,307.7068,298.4173,56.97737,56.16991
1184441,309.0013,298.4205,57.08718,56.1702
1184455,310.3428,298.4665,57.2003,56.17428
1184470,311.8502,298.3799,57.32659,56.16658
1184489,314.457,297.8394,57.54294,56.11853
1184506,317.2913,297.2579,57.77531,56.06668
1184520,320.1942,296.8954,58.01024,56.0343
1184537,323.3918,296.5983,58.26549,56.00771
1184553,326.5695,296.411,58.51557,55.99093
1184575,328.8543,296.3101,58.6932,55.98189
1184589,331.4102,296.0451,58.88978,55.95811
1184606,333.9017,295.7579,59.07929,55.93232
1184620,335.9995,295.6299,59.23725,55.9208
1184636,338.0168,295.496,59.38776,55.90876
1184653,340.1827,295.2074,59.5479,55.88276
1184670,342.3585,295.0541,59.70726,55.86894
1184689,343.9383,295.0128,59.82201,55.86521
1184705,345.654,295.0045,59.94576,55.86446
1184722,347.2304,294.9728,60.05864,55.8616
1184739,348.7769,295.064,60.16864,55.86983
1184755,350.2061,295.2626,60.26964,55.88773
1184772,351.3745,295.2581,60.35176,55.88733
1184790,352.6105,295.1068,60.43818,55.87369
1184806,353.8784,295.0241,60.52635,55.86624
1184823,354.8472,294.9266,60.5934,55.85744
1184840,355.9166,294.7738,60.66709,55.84364
1184854,356.9784,294.6913,60.73992,55.83619
1184873,357.9535,294.6595,60.80652,55.83331
1184892,358.7636,294.6095,60.86164,55.8288
1184907,359.652,294.5362,60.92186,55.82218
1184925,360.5226,294.528,60.98067,55.82143
1184947,361.062,294.5768,61.01699,55.82585
1184957,361.5213,294.6541,61.04786,55.83283
1184971,362.0711,294.7859,61.08472,55.84474
1184989,362.5609,294.8834,61.11749,55.85354
1185007,362.9673,294.907,61.14463,55.85567
1185023,363.2922,294.941,61.16629,55.85874
1185039,363.6053,294.9217,61.18714,55.857
1185056,363.895,294.9403,61.20641,55.85867
1185071,364.1988,294.8705,61.22658,55.85238
1185088,364.5551,294.7838,61.25022,55.84454
1185108,364.936,294.732,61.27544,55.83987
1185122,365.2699,294.6547,61.29752,55.83289
1185139,365.6876,294.6286,61.3251,55.83052
1185158,366.0848,294.6669,61.35127,55.83399
1185175,366.4576,294.676,61.3758,55.8348
1185190,366.8303,294.711,61.40028,55.83797
1185206,367.2526,294.6579,61.42798,55.83317
1185222,367.6214,294.611,61.45213,55.82893
1185239,366.7757,294.6243,61.3967,55.83014
1185255,366.9489,294.6474,61.40807,55.83223
1185275,367.6805,294.6357,61.45599,55.83117
1185289,368.6789,294.7249,61.52116,55.83923
1185305,369.9998,294.9012,61.60696,55.85514
1185322,371.353,295.1569,61.69437,55.87821
1185339,373.2103,295.2374,61.81355,55.88546
1185355,375.5526,295.2628,61.96253,55.88775
1185374,378.391,295.2499,62.14114,55.88659
1185390,381.0279,295.2859,62.3052,55.88984
1185408,383.786,295.2823,62.47491,55.88951
1185425,386.1437,295.1219,62.61847,55.87506
1185440,388.0339,294.6852,62.73257,55.83564
1185457,389.7722,294.1853,62.83672,55.79042
1185474,391.2798,293.6309,62.92646,55.74016
1185489,392.7689,292.854,63.01456,55.66949
1185507,394.0079,292.1554,63.08747,55.60574
1185522,395.1744,291.4191,63.15577,55.53831
1185539,396.1479,290.8944,63.21252,55.49012
1185557,397.215,290.2472,63.27449,55.43052
1185575,398.2573,289.8128,63.33475,55.39042
1185590,399.2411,289.4991,63.3914,55.3614
1185607,400.2066,289.2831,63.44678,55.34141
1185625,401.1819,289.1306,63.50251,55.32727
1185642,402.0399,289.0352,63.55135,55.31843
1185659,403.0265,288.8354,63.60731,55.29988
1185675,404.1732,288.5662,63.67207,55.27487
1185694,405.2832,288.2922,63.73449,55.24939
1185711,406.0289,288.1578,63.77626,55.23687
1185725,407.0345,287.8977,63.83239,55.21264
1185740,407.9599,287.6551,63.88386,55.18999
1185758,408.7992,287.4182,63.93037,55.16787
1185790,409.9942,287.053,63.99634,55.13371
1185804,410.5244,286.9155,64.0255,55.12083
1185816,410.9768,286.7038,64.05034,55.10099
1185826,411.625,286.4866,64.08585,55.08061
1185841,412.3545,286.2254,64.12571,55.05607
1185857,413.1356,286.1402,64.16826,55.04807
1185876,414.0646,286.0526,64.2187,55.03982
1185893,415.4456,285.8455,64.29333,55.02033
1185908,416.9564,285.6241,64.37453,54.99949
1185924,418.7069,285.5154,64.46801,54.98923
1185944,419.8271,285.5786,64.5275,54.99519
1185958,421.0282,285.5245,64.59099,54.99009
1185974,422.3241,285.2799,64.65917,54.96701
1185993,423.7021,285.0619,64.7313,54.94643
1186010,425.0349,284.9072,64.80069,54.9318
1186026,426.2629,284.835,64.86431,54.92497
1186043,427.5037,284.7146,64.92829,54.91358
1186063,428.2979,284.6431,64.96909,54.90681
1186075,429.3857,284.2856,65.02476,54.87293
1186092,430.6688,283.9144,65.09013,54.83769
1186111,432.2179,283.3903,65.16862,54.78783
1186126,433.5962,283.034,65.23808,54.75387
1186145,434.3945,282.7852,65.27814,54.73011
1186161,435.1386,282.4179,65.31537,54.69501
1186175,435.7283,282.0601,65.3448,54.66074
1186190,436.1275,281.6567,65.36469,54.62204
1186208,436.0541,281.5064,65.36103,54.6076
1186225,435.9628,281.2247,65.35648,54.58051
1186241,435.6808,280.9354,65.34243,54.55265
1186258,435.279,280.704,65.32238,54.53034
1186274,434.97,280.5444,65.30695,54.51495
1186290,434.5173,280.5359,65.28429,54.51412
1186308,434.0508,280.5411,65.26091,54.51463
1186324,433.5089,280.5748,65.23369,54.51788
1186341,432.9422,280.6359,65.20517,54.52377
1186359,432.5224,280.6151,65.184,54.52177
1186374,431.9698,280.7722,65.15609,54.53692
1186391,431.3669,280.9046,65.12556,54.54969
1186407,430.8197,280.9885,65.09779,54.55777
1186424,430.2232,281.1078,65.06747,54.56926
1186441,429.7473,281.0549,65.04321,54.56417
1186461,429.2931,281.037,65.02003,54.56245
1186480,428.896,281.0442,64.99973,54.56313
1186490,428.444,281.1506,64.97658,54.57338
1186507,427.9169,281.2691,64.94953,54.58478
1186524,427.1825,281.4648,64.91176,54.6036
1186540,426.6667,281.5885,64.88516,54.61549
1186558,426.1968,281.5555,64.86089,54.61231
1186575,425.9697,281.45,64.84915,54.60218
1186590,425.8462,281.3324,64.84276,54.59087
1186608,425.7613,281.2623,64.83836,54.58413
1186624,425.6662,281.2322,64.83344,54.58123
1186640,425.6052,281.1106,64.83028,54.56953
1186658,425.5231,281.0244,64.82602,54.56123
1186674,425.3257,280.9595,64.81578,54.55498
1186691,425,280.9413,64.79888,54.55322
1186711,424.6181,280.9902,64.77903,54.55793
1186728,424.2179,280.928,64.75819,54.55194
1186741,423.7524,280.8901,64.73392,54.54829
1186758,423.3034,280.6663,64.71046,54.5267
1186780,422.9678,280.4538,64.69291,54.5062
1186795,422.7669,280.2977,64.68239,54.49111
1186808,422.4861,280.1243,64.66767,54.47435
1186826,422.0948,279.9874,64.64713,54.46111
1186843,421.7197,279.7568,64.62742,54.43877
1186858,421.2105,279.4434,64.60061,54.40838
1186874,420.7378,279.0306,64.57567,54.36829
1186893,420.2561,278.5548,64.55021,54.32197
1186909,419.6542,277.9391,64.51833,54.26188
1186929,419.0768,277.347,64.48768,54.20393
1186944,418.2656,276.6691,64.4445,54.13739
1186961,417.4823,276.0092,64.40268,54.0724
1186980,416.6247,275.2976,64.35674,54.0021
1186993,415.5669,274.6368,64.29987,53.9366
1187010,414.3327,273.9648,64.23322,53.86978
1187028,413.0956,273.4615,64.16608,53.81959
1187044,412.2269,272.8914,64.11874,53.7626
1187059,411.4594,272.4362,64.07679,53.71699
1187078,410.7624,272.0421,64.03857,53.67741
1187092,410.049,271.668,63.99935,53.63977
1187113,409.443,271.2021,63.96595,53.5928
1187129,409.0806,270.789,63.94593,53.55107
1187143,408.6617,270.3945,63.92276,53.51115
1187162,408.4237,269.9904,63.90958,53.47017
1187179,408.1376,269.6517,63.89372,53.43576
1187194,407.7755,269.3484,63.87362,53.40491
1187211,407.4745,269.1129,63.85689,53.38092
1187228,407.2096,268.8858,63.84215,53.35775
1187245,406.9768,268.7293,63.82918,53.34178
1187261,406.7145,268.6582,63.81456,53.33451
1187278,406.4084,268.6279,63.79747,53.33142
1187294,405.9964,268.6331,63.77444,53.33195
1187311,405.528,268.6418,63.74821,53.33284
1187330,405.0876,268.6539,63.72351,53.33408
1187343,404.4357,268.8234,63.68686,53.35138
1187361,403.7641,268.9782,63.649,53.36718
1187380,403.1,269.0944,63.61147,53.37902
1187397,402.2317,269.0449,63.56224,53.37398
1187409,401.1978,268.9636,63.50342,53.36569
1187426,399.6952,268.71,63.41747,53.33981
1187444,398.0291,268.5003,63.32158,53.31838
1187465,395.9166,268.3102,63.19906,53.29893
1187483,394.1604,268.2244,63.09642,53.29015
1187498,392.2847,268.148,62.98597,53.28234
1187511,389.8007,268.2777,62.83842,53.29561
1187528,387.2112,268.438,62.68302,53.31202
1187547,384.4358,268.7159,62.51461,53.34041
1187564,381.2481,269.1754,62.31882,53.38728
1187581,378.2895,269.5384,62.13479,53.42424
1187598,375.2833,270.0288,61.94547,53.47406
1187614,371.9747,270.5866,61.73437,53.5306
1187633,369.3764,270.9577,61.56653,53.56813
1187647,366.6538,271.3499,61.38869,53.60772
1187665,364.3448,271.6273,61.23627,53.63568
1187681,362.173,271.888,61.09154,53.66191
1187697,360.0744,272.0568,60.95042,53.67888
1187713,358.0737,272.1362,60.81471,53.68686
1187731,356.3708,272.2602,60.69829,53.69932
1187747,354.4784,272.4593,60.5679,53.7193
1187765,352.8689,272.6482,60.45618,53.73824
1187781,351.37,272.7721,60.35144,53.75066
1187798,349.884,272.8441,60.24694,53.75786
1187815,348.3356,272.9393,60.13733,53.76739
1187831,346.8737,273.0347,60.03316,53.77694
1187848,345.1495,273.1529,59.90947,53.78876
1187864,343.2095,273.2466,59.76917,53.79812
1187881,341.4237,273.4247,59.63898,53.81591
1187897,339.4429,273.6179,59.49338,53.8352
1187912,337.1443,273.797,59.32283,53.85306
1187929,334.9522,274.0206,59.15857,53.87533
1187950,332.5771,274.2306,58.9788,53.89623
1187966,330.404,274.3648,58.81266,53.90958
1187981,328.2891,274.4254,58.64943,53.9156
1187997,325.931,274.4278,58.46561,53.91584
1188015,323.6274,274.3827,58.28416,53.91135
1188035,321.7388,274.5149,58.134,53.92449
1188048,319.7646,274.5552,57.97566,53.9285
1188063,317.6806,274.532,57.807,53.92619
1188080,315.6827,274.5545,57.6438,53.92843
1188096,313.5639,274.6309,57.46911,53.93601
1188114,311.7583,274.6008,57.31891,53.93303
1188130,309.7827,274.6516,57.15315,53.93807
1188147,307.8007,274.6782,56.98536,53.94071
1188164,305.8936,274.7187,56.82246,53.94473
1188181,304.1037,274.8335,56.66827,53.95612
1188197,302.2699,274.9207,56.50898,53.96476
1188213,300.1133,275.2169,56.31992,53.99411
1188231,298.158,275.4888,56.14687,54.02102
1188247,296.1447,275.7896,55.96705,54.05073
1188264,294.2818,276.0761,55.79916,54.07901
1188281,292.3281,276.3228,55.62152,54.10331
1188298,290.3957,276.5175,55.44421,54.12248
1188313,288.129,276.7935,55.23418,54.14961
1188332,286.069,276.8876,55.04137,54.15886
1188348,283.7282,277.0646,54.81999,54.17624
1188365,281.4688,277.3244,54.60398,54.20172
1188383,279.1245,277.6744,54.37741,54.236
1188399,276.8947,277.9751,54.15956,54.2654
1188417,274.5844,278.2051,53.9314,54.28786
1188433,272.4323,278.2909,53.71659,54.29624
1188449,270.0907,278.4709,53.48035,54.3138
1188467,267.9901,278.658,53.26616,54.33203
1188483,265.9378,278.9379,53.05481,54.35927
1188501,263.6956,279.1519,52.82149,54.38008
1188519,261.9649,279.4001,52.63967,54.40418
1188533,259.8809,279.6479,52.41872,54.42822
1188550,258.1272,279.903,52.23105,54.45293
1188566,256.4297,280.1351,52.04787,54.4754
1188583,254.9499,280.2697,51.88696,54.48841
1188599,253.5993,280.4864,51.73907,54.50934
1188614,252.1508,280.5953,51.57939,54.51986
1188633,250.8865,280.7398,51.43908,54.5338
1188650,249.6608,280.7879,51.30224,54.53844
1188666,248.4702,280.8001,51.16852,54.53961
1188682,247.581,280.7132,51.06816,54.53123
1188698,246.6738,280.6549,50.9653,54.52561
1188714,245.8857,280.7018,50.87558,54.53013
1188733,245.1589,280.7249,50.79252,54.53236
1188749,244.7371,280.6945,50.74419,54.52943
1188765,244.2231,280.7642,50.68515,54.53615
1188784,243.6809,280.7805,50.62271,54.53772
1188801,243.2734,280.7773,50.57568,54.53742
1188819,243.0121,280.75,50.54548,54.53478
1188829,242.6174,280.7133,50.49977,54.53124
1188846,242.3562,280.628,50.46947,54.52301
1188863,242.0767,280.5691,50.43702,54.51732
1188881,241.797,280.4993,50.40449,54.51059
1188899,241.5232,280.4773,50.3726,54.50846
1188917,241.2679,280.3779,50.34282,54.49886
1188936,240.887,280.2652,50.29835,54.48797
1188953,240.5462,280.2218,50.25847,54.48378
1188966,240.0147,280.1003,50.19616,54.47202
1188983,239.5253,279.9071,50.13863,54.45333
1189001,238.9411,279.7287,50.06977,54.43605
1189018,238.5409,279.565,50.0225,54.42018
1189034,238.0633,279.5535,49.96596,54.41906
1189052,237.7314,279.5932,49.92658,54.42292
1189067,237.4577,279.7481,49.89406,54.43793
1189085,237.3145,279.7122,49.87703,54.43445
1189101,237.1927,279.6753,49.86254,54.43087
1189119,237.0905,279.7026,49.85037,54.43352
1189135,236.9749,279.6359,49.83659,54.42706
1189150,236.835,279.6551,49.81992,54.42892
