Time Stamp(ms),Intersection,,Angle,
,x,y,x,y
1269207,320.1353,241.6197,58.0055,50.38384
1269225,319.9686,241.0454,57.99209,50.31685
1269242,319.7995,240.1315,57.97847,50.20986
1269258,319.7943,239.3831,57.97805,50.12189
1269275,319.832,238.6006,57.98109,50.02956
1269291,319.9307,238.1012,57.98904,49.97045
1269308,319.9778,237.928,57.99283,49.94991
1269330,319.9782,237.9794,57.99286,49.95601
1269342,319.9133,238.2794,57.98764,49.99155
1269358,319.7233,238.6914,57.97234,50.04029
1269374,319.2994,239.3284,57.93815,50.11544
1269390,318.8557,239.9008,57.90229,50.18278
1269406,318.3779,240.4869,57.86361,50.25152
1269423,317.8357,240.8974,57.8196,50.29956
1269440,317.4729,241.0705,57.7901,50.31979
1269455,317.0851,240.987,57.7585,50.31002
1269473,316.8182,240.744,57.73673,50.28162
1269490,316.599,240.3435,57.71883,50.23473
1269507,316.5531,239.6811,57.71507,50.15695
1269526,316.497,239.1388,57.71049,50.0931
1269542,316.6391,238.4849,57.7221,50.01587
1269559,316.7685,237.9047,57.73267,49.94714
1269572,316.9097,237.2978,57.7442,49.87505
1269589,317.0449,236.8786,57.75522,49.82512
1269606,317.1691,236.6731,57.76535,49.8006
1269623,317.2075,236.5012,57.76848,49.78008
1269640,317.1678,236.3651,57.76525,49.76382
1269656,317.136,236.0126,57.76265,49.72165
1269673,316.9743,235.5407,57.74947,49.66507
1269694,316.7727,235.1735,57.73301,49.62097
1269706,316.4574,234.7291,57.70726,49.56747
1269723,315.9062,234.1164,57.66212,49.49353
1269741,315.3475,233.504,57.61627,49.41941
1269757,314.5602,232.8656,57.55146,49.34189
1269775,313.3663,232.1855,57.45273,49.25903
1269791,312.2424,231.3748,57.3593,49.15991
1269808,310.9379,230.5051,57.25026,49.05313
1269825,309.8507,229.7221,57.15889,48.95661
1269841,308.7719,229.0228,57.06777,48.87008
1269861,307.5902,228.431,56.96744,48.79663
1269878,306.7978,228.1612,56.89986,48.76307
1269890,305.8818,227.9628,56.82145,48.73835
1269907,305.0916,228.1106,56.75352,48.75677
1269924,304.3541,228.2504,56.68991,48.77416
1269941,303.8829,228.724,56.64915,48.83302
1269957,303.3573,229.0591,56.60359,48.87458
1269977,302.942,229.4696,56.56752,48.9254
1269991,302.7692,229.8708,56.55248,48.97498
1270009,302.6441,230.1226,56.54159,49.00603
1270024,302.619,230.3765,56.53941,49.03731
1270040,302.833,230.4773,56.55803,49.04972
1270057,303.1019,230.5239,56.58141,49.05545
1270074,303.3579,230.5386,56.60365,49.05725
1270092,303.7167,230.4216,56.63476,49.04286
1270107,304.4396,230.353,56.6973,49.03441
1270128,305.1002,230.411,56.75426,49.04156
1270142,306.0075,230.601,56.83222,49.06493
1270164,307.4047,230.8012,56.95164,49.08954
1270184,308.4829,230.9504,57.04328,49.10787
1270195,309.6756,231.0745,57.14413,49.1231
1270209,311.799,231.3951,57.3223,49.16241
1270225,313.937,231.8099,57.49999,49.21317
1270243,316.1911,232.1989,57.68546,49.26068
1270260,318.0298,232.5571,57.83537,49.30434
1270275,320.4297,232.9339,58.02916,49.35019
1270294,322.9281,233.3213,58.2287,49.39724
1270307,325.2673,233.6584,58.41352,49.43811
1270323,327.8249,233.9778,58.6134,49.47678
1270341,330.1322,234.2764,58.79177,49.51287
1270357,332.333,234.4869,58.96022,49.53827
1270376,334.7991,234.6366,59.14704,49.55632
1270399,336.7885,234.7203,59.29627,49.56642
1270410,338.7141,234.8639,59.43949,49.58371
1270424,340.6726,234.9778,59.58392,49.59743
1270441,342.9181,235.1249,59.74799,49.61512
1270462,344.338,235.2169,59.85092,49.62618
1270474,346.0855,235.3591,59.97673,49.64327
1270495,347.8118,235.5722,60.10008,49.66885
1270508,349.4972,235.85,60.21963,49.70217
1270524,351.3866,236.1296,60.3526,49.73565
1270542,353.367,236.43,60.49084,49.77158
1270559,355.1559,236.8179,60.6147,49.81788
1270576,356.9012,237.1902,60.73464,49.86224
1270591,358.7055,237.6671,60.85769,49.91895
1270607,360.4388,238.2825,60.97502,49.99192
1270626,362.0894,238.8923,61.08594,50.06402
1270644,363.4719,239.5784,61.17826,50.14487
1270659,365.0028,240.188,61.27986,50.21649
1270679,366.0334,240.564,61.34789,50.26056
1270691,367.1386,241.0023,61.42051,50.31182
1270708,368.2214,241.3651,61.49134,50.35416
1270728,369.188,241.6794,61.55429,50.3908
1270745,369.8825,241.9048,61.59937,50.41702
1270759,370.6098,242.0695,61.64643,50.43617
1270775,371.2332,242.1189,61.68666,50.44192
1270793,371.7834,242.1659,61.72208,50.44738
1270809,372.2558,242.261,61.75242,50.45843
1270828,372.6596,242.386,61.77831,50.47293
1270844,373.0158,242.4659,61.80111,50.4822
1270859,373.2408,242.5444,61.8155,50.49131
1270878,373.4618,242.6873,61.82961,50.50787
1270892,373.6795,242.8805,61.84351,50.53025
1270911,373.7898,243.094,61.85054,50.55494
1270925,373.9492,243.2809,61.8607,50.57655
1270942,374.089,243.4316,61.86961,50.59395
1270959,374.2591,243.5713,61.88044,50.61008
1270975,374.4673,243.706,61.89368,50.62561
1270992,374.7606,243.7988,61.91232,50.63631
1271008,375.1252,243.8062,61.93546,50.63716
1271027,375.6221,243.7675,61.96693,50.63271
1271048,376.3519,243.6278,62.01304,50.61659
1271062,377.0414,243.5182,62.05648,50.60395
1271078,377.9241,243.2574,62.1119,50.57383
1271094,378.7304,243.037,62.16236,50.54836
1271111,379.5075,242.8646,62.21082,50.5284
1271129,380.4093,242.6618,62.26688,50.50491
1271145,381.1205,242.5272,62.31093,50.48931
1271164,381.8235,242.3527,62.35435,50.46907
1271179,382.3922,242.238,62.38939,50.45575
1271194,383.0291,242.035,62.42852,50.43217
1271214,383.4941,241.8162,62.45704,50.40672
1271229,383.9895,241.5836,62.48735,50.37964
1271246,384.3678,241.2657,62.51046,50.34257
1271262,384.689,240.9663,62.53006,50.30761
1271279,384.8895,240.6478,62.54227,50.27036
1271297,385.0145,240.1266,62.54988,50.20929
1271314,385.091,239.66,62.55454,50.15447
1271328,385.1484,239.1568,62.55804,50.09523
1271346,385.1252,238.6664,62.55662,50.03734
1271363,385.1205,238.2614,62.55634,49.98943
1271380,385.0873,237.836,62.55432,49.939
1271396,385.0541,237.4695,62.5523,49.89547
1271412,384.9986,237.0789,62.54892,49.84899
1271429,384.9652,236.6958,62.54689,49.80331
1271447,384.9643,236.2665,62.54683,49.75203
1271464,384.9453,235.8815,62.54567,49.70594
1271477,384.9492,235.57,62.54591,49.66859
1271495,384.9641,235.1842,62.54681,49.62226
1271513,384.9717,236.2872,62.54728,49.75451
1271530,385.0218,236.2254,62.55033,49.74712
1271544,384.9832,236.2338,62.54798,49.74811
1271560,385.0167,236.3315,62.55002,49.7598
1271577,385.019,236.3904,62.55016,49.76684
1271594,384.8967,236.4157,62.54271,49.76986
1271611,384.7118,236.5628,62.53144,49.78743
1271627,384.5808,236.761,62.52346,49.8111
1271644,384.3723,237.1622,62.51074,49.85891
1271662,384.2372,237.4206,62.50249,49.88965
1271678,384.0895,237.8268,62.49347,49.93791
1271693,383.9142,238.2014,62.48275,49.98232
1271711,383.7704,238.4283,62.47395,50.00919
1271731,383.6264,238.6558,62.46514,50.03609
1271747,383.4594,238.8145,62.45491,50.05483
1271762,383.3225,239.032,62.44653,50.08051
1271778,383.2329,239.237,62.44103,50.10468
1271798,383.2054,239.3499,62.43935,50.11797
1271814,383.1462,239.5047,62.43571,50.13621
1271829,383.1321,239.5942,62.43485,50.14673
1271845,383.1055,239.7054,62.43322,50.15981
1271863,383.1495,239.9229,62.43591,50.18537
1271882,383.2847,240.1085,62.44421,50.20716
1271899,383.4189,240.3266,62.45243,50.23274
1271914,383.629,240.7153,62.4653,50.27826
1271930,383.7857,240.9968,62.4749,50.31118
1271949,383.9657,241.3784,62.4859,50.35572
1271964,384.0542,241.7678,62.49131,50.40109
1271983,384.128,242.076,62.49582,50.43694
1271999,384.1396,242.4055,62.49653,50.4752
1272015,384.1725,242.7659,62.49854,50.51697
1272031,384.1804,242.9948,62.49902,50.54347
1272047,384.2072,242.887,62.50066,50.53099
1272063,384.2396,243.1018,62.50264,50.55585
1272081,384.2585,243.222,62.5038,50.56974
1272097,384.3372,243.2819,62.5086,50.57667
1272113,384.3728,243.3946,62.51077,50.58968
1272129,384.4198,243.4788,62.51364,50.5994
1272146,384.4401,243.6068,62.51487,50.61417
1272163,384.5279,243.7915,62.52023,50.63547
1272180,384.6046,244.0081,62.52491,50.66041
1272201,384.6777,244.2478,62.52937,50.68799
1272216,384.7529,244.5294,62.53395,50.72034
1272230,384.8505,244.7921,62.5399,50.7505
1272249,384.929,245.0204,62.54468,50.77666
1272265,385.0521,245.295,62.55217,50.80809
1272281,385.1712,245.5434,62.55942,50.8365
1272297,385.2564,245.7406,62.5646,50.85901
1272313,385.3463,245.7625,62.57007,50.86152
1272330,385.4254,245.8599,62.57488,50.87263
1272348,385.4855,245.8332,62.57853,50.86959
1272365,385.53,245.9482,62.58123,50.8827
1272383,385.5436,245.9942,62.58206,50.88795
1272404,385.4735,245.967,62.5778,50.88485
1272416,385.3851,246.0708,62.57243,50.89668
1272433,385.2748,246.2761,62.56572,50.92006
1272449,385.2212,246.5092,62.56246,50.94658
1272467,385.1879,246.7327,62.56044,50.97199
1272484,385.1572,247.1003,62.55857,51.01371
1272502,385.1658,247.3448,62.55909,51.04142
1272517,385.2346,247.5761,62.56328,51.0676
1272534,385.3524,248.0009,62.57044,51.1156
1272552,385.4159,248.4633,62.5743,51.16774
1272568,385.4522,249.0527,62.57651,51.23404
1272585,385.3981,249.5188,62.57322,51.28633
1272601,385.3311,249.9821,62.56914,51.33819
1272618,385.2267,250.4388,62.5628,51.3892
1272635,385.0827,250.8394,62.55404,51.43385
1272650,384.8922,251.1607,62.54243,51.46958
1272669,384.7909,251.3225,62.53627,51.48756
1272685,384.8175,251.3827,62.53789,51.49425
1272708,384.8441,251.3519,62.53951,51.49083
1272720,384.9303,251.1721,62.54476,51.47086
1272736,385.0508,250.9595,62.55209,51.44721
1272749,385.291,250.5871,62.56671,51.40574
1272767,385.4406,250.3925,62.57581,51.38403
1272784,385.5844,250.2218,62.58454,51.36497
1272800,385.5763,250.1382,62.58405,51.35563
1272816,385.4401,250.1391,62.57577,51.35574
1272831,385.1889,250.1146,62.5605,51.353
1272850,384.668,250.0744,62.52877,51.34851
1272872,384.0554,249.9446,62.49138,51.33399
1272883,383.4162,249.8171,62.45227,51.31974
1272901,382.802,249.7433,62.41459,51.31148
1272916,382.1032,249.6022,62.37159,51.29568
1272932,381.6181,249.5617,62.34168,51.29114
1272948,381.1488,249.581,62.31268,51.2933
1272966,380.8723,249.5371,62.29557,51.28838
1272982,380.6981,249.5518,62.28478,51.29002
1272999,380.6584,249.4002,62.28232,51.27304
1273015,380.799,249.1126,62.29103,51.24077
1273032,380.9018,248.8255,62.2974,51.20851
1273048,381.1035,248.4644,62.30988,51.16787
1273067,381.3098,248.3235,62.32264,51.15199
1273083,381.5067,248.5008,62.3348,51.17197
1273097,381.6227,248.7751,62.34196,51.20284
1273114,381.7206,249.1246,62.348,51.24212
1273131,381.7836,249.6701,62.35189,51.30328
1273147,381.8374,250.2477,62.35521,51.36787
1273165,381.9026,250.7582,62.35923,51.4248
1273181,381.9419,251.589,62.36165,51.51715
1273216,381.9369,252.3776,62.36134,51.60447
1273225,381.9553,252.6279,62.36248,51.63211
1273233,382.0499,252.9086,62.36831,51.66307
1273248,382.1475,253.0459,62.37432,51.6782
1273264,382.2733,253.2417,62.38207,51.69975
1273281,382.4629,253.2803,62.39373,51.704
1273299,382.7266,253.3178,62.40995,51.70813
1273314,383.0039,253.3839,62.42698,51.7154
1273333,383.1913,253.3401,62.43848,51.71058
1273348,383.3241,253.2511,62.44662,51.70079
1273365,383.4068,253.1798,62.45169,51.69294
1273383,383.4718,253.1737,62.45567,51.69227
1273399,383.4632,253.1871,62.45515,51.69375
1273415,383.4314,253.1915,62.4532,51.69423
1273433,383.4664,253.2573,62.45534,51.70147
1273449,383.6137,253.2091,62.46436,51.69617
1273466,383.8927,253.2293,62.48143,51.69839
1273487,384.2231,253.3109,62.50163,51.70737
1273503,384.6013,253.4288,62.52471,51.72034
1273518,384.6629,253.4723,62.52847,51.72511
1273534,384.3853,253.6675,62.51154,51.74656
1273553,384.4411,253.759,62.51493,51.75661
1273566,384.7744,253.7812,62.53526,51.75904
1273582,385.4945,253.6927,62.57907,51.74934
1273601,386.2079,253.6461,62.62236,51.74421
1273618,387.9449,253.4739,62.72722,51.72529
1273632,390.5005,252.9502,62.88014,51.66765
1273649,393.6581,252.3558,63.06692,51.60205
1273668,397.821,251.8202,63.30956,51.54278
1273685,401.6043,251.6644,63.52657,51.52552
1273700,405.2174,251.5531,63.7308,51.51316
1273718,409.5214,251.4948,63.97028,51.5067
1273732,413.0711,251.3084,64.16475,51.486
1273750,415.3517,251.2536,64.28827,51.47991
1273767,416.2923,251.7589,64.3389,51.53599
1273783,416.6945,252.4669,64.36049,51.61433
1273800,417.158,253.098,64.38532,51.68393
1273816,417.6932,253.685,64.41395,51.74849
1273833,418.3113,253.9497,64.44694,51.77753
1273849,418.8635,253.9667,64.47634,51.7794
1273868,419.8475,253.8261,64.52857,51.76398
1273884,421.5844,253.4229,64.6203,51.71968
1273901,423.3449,253.1089,64.71264,51.68513
1273918,425.2729,252.6822,64.81304,51.6381
1273935,427.7538,252.1587,64.94115,51.58026
1273951,430.0306,251.8186,65.05766,51.54261
1273968,432.6988,251.367,65.1929,51.4925
1273985,435.3068,250.9471,65.32377,51.44583
1274001,437.9149,250.7638,65.45335,51.42542
1274019,440.0603,250.7206,65.55901,51.42061
1274035,442.2376,250.499,65.66534,51.39592
1274050,444.3832,250.3727,65.7693,51.38182
1274067,446.3199,250.2941,65.86242,51.37305
1274085,447.9458,250.4619,65.94007,51.39178
1274100,449.7065,250.9192,66.02363,51.44272
1274117,451.5096,251.6333,66.10865,51.52206
1274136,453.149,252.2732,66.18546,51.59293
1274153,454.5664,253.1184,66.25148,51.68619
1274169,455.7755,254.0197,66.30753,51.78521
1274185,456.7313,254.8986,66.35167,51.88136
1274202,457.2256,255.6845,66.37443,51.96698
1274221,457.387,256.2009,66.38185,52.02308
1274237,457.1975,256.6858,66.37314,52.07561
1274251,455.7043,257.3576,66.30424,52.14819
1274269,453.4343,258.0937,66.19877,52.22746
1274287,451.2885,258.7233,66.09825,52.29502
1274302,448.7626,259.3941,65.9789,52.36678
1274320,445.8546,260.1336,65.8401,52.44563
1274337,443.3104,260.9221,65.71743,52.5294
1274352,440.3523,261.5911,65.57332,52.60021
1274370,438.0144,262.1704,65.45827,52.66134
1274386,435.619,262.824,65.33936,52.73012
1274403,433.1607,263.466,65.21617,52.79746
1274420,431.0807,263.9875,65.11105,52.852
1274438,428.9319,264.4675,65.00156,52.9021
1274451,426.4908,265.136,64.87608,52.97165
1274468,424.0153,266.019,64.74763,53.06321
1274485,421.0215,267.3323,64.59064,53.19864
1274503,417.8869,268.927,64.4243,53.36196
1274520,415.1842,270.278,64.27924,53.49934
1274536,411.9187,272.1146,64.10191,53.6847
1274552,408.5365,274.0011,63.91583,53.8734
1274569,405.0587,276.1341,63.72189,54.08472
1274587,401.4157,278.5822,63.51583,54.32464
1274604,397.7766,280.8244,63.30699,54.54195
1274620,394.266,282.7194,63.10261,54.72383
1274638,389.9751,284.4784,62.84883,54.89121
1274651,385.5026,286.2395,62.57957,55.0574
1274671,381.4127,287.7509,62.32899,55.19893
1274686,377.7177,289.3288,62.09896,55.34563
1274703,374.0651,290.7543,61.86808,55.47724
1274720,371.1155,291.8036,61.67907,55.57356
1274736,367.8505,292.9731,61.46711,55.68035
1274752,364.4856,293.978,61.24561,55.77164
1274770,361.7969,294.3293,61.06634,55.80346
1274787,359.0797,295.0021,60.88309,55.86425
1274803,356.3804,295.5789,60.69894,55.91621
1274820,353.5425,296.209,60.50304,55.97282
1274838,351.1858,296.7374,60.33853,56.02016
1274853,348.326,297.4722,60.13664,56.08581
1274874,345.9709,298.1977,59.96851,56.1504
1274887,342.903,298.882,59.7469,56.21112
1274904,339.9259,299.6611,59.529,56.28004
1274919,336.8519,300.4355,59.30101,56.34828
1274936,333.4931,301.1976,59.04836,56.4152
1274954,330.5981,301.9427,58.82756,56.48042
1274971,327.5664,302.6844,58.5933,56.5451
1274990,325.0594,303.3555,58.39717,56.60344
1275004,322.5034,304.0545,58.19494,56.66401
1275020,320.3369,304.4305,58.0217,56.69651
1275037,318.0894,304.8398,57.8402,56.73183
1275055,316.2343,305.0788,57.689,56.75242
1275070,314.5611,305.3518,57.55153,56.77592
1275088,313.0877,305.6492,57.42961,56.80147
1275108,311.8616,305.8657,57.32754,56.82006
1275120,310.7155,305.885,57.2316,56.82172
1275142,309.8132,305.6262,57.15572,56.7995
1275158,309.0423,305.518,57.09065,56.7902
1275173,308.3192,305.3622,57.0294,56.77681
1275189,307.4767,305.2435,56.95778,56.7666
1275206,306.5572,305.2564,56.8793,56.76771
1275223,305.5999,305.347,56.79724,56.7755
1275240,304.2934,305.6907,56.68467,56.80504
1275256,302.8978,306.2655,56.56367,56.85433
1275270,301.422,306.9016,56.43487,56.90873
1275288,299.9897,307.4747,56.30902,56.9576
1275304,298.7559,307.7878,56.19995,56.98426
1275321,297.6438,308.0926,56.1011,57.01016
1275338,296.748,308.3496,56.02111,57.03198
1275355,295.958,308.4769,55.95029,57.04277
1275371,295.3963,308.3867,55.89978,57.03513
1275389,294.9188,308.2177,55.85674,57.02078
1275405,294.5216,307.9286,55.82085,56.99622
1275421,294.296,307.3713,55.80044,56.9488
1275438,294.1342,307.1161,55.78579,56.92704
1275454,294.0941,306.7865,55.78216,56.8989
1275471,294.0719,306.5148,55.78016,56.87567
1275487,294.1467,306.3243,55.78693,56.85937
1275504,294.3197,306.1106,55.80259,56.84106
1275520,294.4943,305.9161,55.81839,56.82438
1275538,294.6447,305.8849,55.83198,56.82171
1275554,294.8017,305.9517,55.84616,56.82744
1275571,294.9682,305.8718,55.86119,56.82058
1275587,295.0916,305.7266,55.87232,56.80812
1275605,295.2439,305.6084,55.88605,56.79797
1275625,295.3418,305.6199,55.89487,56.79895
1275638,295.4287,305.6262,55.9027,56.7995
1275654,295.5672,305.6918,55.91516,56.80513
1275670,295.6489,305.9422,55.92251,56.82663
1275687,295.7826,306.2485,55.93453,56.85287
1275706,295.8611,306.5989,55.94159,56.88286
1275721,295.9579,306.9553,55.95028,56.91331
1275738,296.0524,307.1409,55.95877,56.92915
1275755,296.1721,307.3231,55.96951,56.94469
1275772,296.3626,307.4863,55.9866,56.9586
1275793,296.531,307.6613,56.00168,56.97349
1275808,296.7396,307.7265,56.02036,56.97905
1275824,296.9906,307.8081,56.0428,56.98598
1275839,297.2656,307.7838,56.06738,56.98392
1275856,297.5468,307.7344,56.09246,56.97971
1275871,297.8248,307.539,56.11723,56.96308
1275889,298.0595,307.3407,56.13812,56.94619
1275906,298.3459,307.0096,56.16357,56.91795
1275922,298.6522,306.6999,56.19075,56.89149
1275940,299.0467,306.2713,56.22572,56.85483
1275956,299.5567,305.4329,56.27082,56.78289
1275971,300.1166,304.5173,56.32021,56.704
1275989,300.7271,303.6925,56.37392,56.63267
1276005,301.3249,302.9272,56.42636,56.56622
1276022,301.9309,302.2283,56.47938,56.50534
1276040,302.3782,301.7542,56.51842,56.46394
1276056,302.7368,301.2947,56.54966,56.42372
1276073,302.9814,300.7806,56.57093,56.37862
1276088,303.0932,300.365,56.58066,56.34208
1276106,302.9962,299.9988,56.57223,56.30983
1276122,302.8389,299.4963,56.55854,56.26548
1276139,302.7374,299.0906,56.54971,56.2296
1276154,302.4564,298.7867,56.52524,56.20268
1276171,302.2456,298.4149,56.50686,56.16969
1276189,302.1512,298.1583,56.49862,56.1469
1276209,302.188,297.8844,56.50183,56.12253
1276225,302.4369,297.6963,56.52354,56.10579
1276241,302.6618,297.5889,56.54313,56.09621
1276255,303.2238,297.4811,56.592,56.08661
1276271,303.9087,297.2931,56.65139,56.06982
1276289,304.5143,297.2166,56.70375,56.063
1276305,305.207,297.0073,56.76346,56.0443
1276323,305.7434,296.89,56.80957,56.03382
1276339,306.1992,296.7678,56.84866,56.02288
1276355,306.7224,296.6724,56.89342,56.01435
1276373,307.1394,296.6037,56.92902,56.00819
1276389,307.5287,296.4659,56.96221,55.99586
1276406,307.8819,296.2987,56.99226,55.98086
1276423,308.2209,296.1023,57.02106,55.96324
1276440,308.465,295.841,57.04176,55.93978
1276456,308.7092,295.4639,57.06246,55.90586
1276473,308.922,295.0023,57.08047,55.86427
1276490,309.2438,294.61,57.10768,55.82884
1276506,309.618,294.2463,57.13926,55.79595
1276523,310.1408,293.6447,57.18331,55.74141
1276543,310.6895,293.1132,57.22942,55.6931
1276559,311.0711,292.7063,57.26142,55.65604
1276574,311.6364,292.1556,57.30873,55.60575
1276590,312.0941,291.9013,57.34694,55.5825
1276606,312.5963,291.657,57.38877,55.56013
1276623,313.1041,291.4883,57.43098,55.54466
1276640,313.5484,291.3388,57.46783,55.53095
1276657,313.9923,291.1554,57.50456,55.51411
1276675,314.326,291.131,57.53214,55.51187
1276690,314.5543,291.1927,57.55098,55.51753
1276706,314.7545,291.3097,57.56747,55.52828
1276723,314.9118,291.3733,57.58043,55.53411
1276740,315.0018,291.5331,57.58784,55.54877
1276761,314.9507,291.7004,57.58363,55.5641
1276774,314.8797,291.9465,57.57779,55.58663
1276790,314.6895,292.3069,57.56211,55.61958
1276807,314.537,292.5663,57.54955,55.64326
1276825,314.2887,292.5746,57.52905,55.64402
1276843,314.1106,292.4971,57.51434,55.63695
