Time Stamp(ms),Intersection,,Angle,
,x,y,x,y
1061224,325.6375,246.056,58.44259,50.89499
1061243,325.801,245.9922,58.45541,50.88772
1061258,325.9095,246.0213,58.46392,50.89104
1061274,326.0855,245.9947,58.47771,50.88801
1061291,326.1989,245.9715,58.48658,50.88536
1061311,326.265,246.0201,58.49176,50.8909
1061326,326.2967,246.1853,58.49424,50.90972
1061345,326.2259,246.451,58.4887,50.93997
1061363,326.0456,246.5516,58.47458,50.95141
1061381,325.8607,246.57,58.46009,50.9535
1061400,325.7587,246.4696,58.4521,50.94209
1061410,325.6483,246.3969,58.44344,50.93381
1061425,325.4265,246.5767,58.42603,50.95427
1061443,325.2483,246.6038,58.41202,50.95734
1061462,325.1462,246.5385,58.404,50.94992
1061478,325.0723,246.5711,58.39818,50.95362
1061491,324.9926,246.4473,58.39192,50.93955
1061509,324.8915,246.3555,58.38396,50.9291
1061527,324.9319,246.1455,58.38714,50.90519
1061543,324.9945,246.0376,58.39207,50.8929
1061561,325.2572,245.7832,58.41272,50.86388
1061577,325.609,245.5256,58.44036,50.83446
1061593,325.93,245.3559,58.46553,50.81506
1061610,326.3406,245.4462,58.49767,50.82539
1061627,326.6754,245.7611,58.52385,50.86136
1061648,327.0173,245.9038,58.55053,50.87764
1061661,327.5457,246.04,58.59169,50.89317
1061676,328.1469,246.0605,58.63839,50.8955
1061691,328.7294,246.017,58.68354,50.89054
1061710,329.3118,245.8067,58.72855,50.86657
1061729,329.7493,245.608,58.76229,50.84388
1061745,329.8823,245.5782,58.77254,50.84047
1061761,330.0534,245.4745,58.78571,50.82862
1061779,329.7795,245.2027,58.76462,50.79753
1061794,329.5746,244.912,58.74883,50.76424
1061810,328.906,244.3599,58.6972,50.70088
1061828,328.0768,243.5877,58.63296,50.61197
1061848,327.4666,242.8818,58.58553,50.5304
1061860,326.888,242.202,58.54044,50.45157
1061876,326.0781,241.3126,58.47713,50.34804
1061897,325.2357,240.6149,58.41104,50.26652
1061913,324.3857,239.8916,58.34409,50.1817
1061928,323.3354,239.3299,58.26102,50.11562
1061944,322.0309,238.7595,58.15731,50.04834
1061962,321.0736,238.1684,58.0808,49.9784
1061978,319.8241,237.5805,57.98045,49.90865
1061993,318.5287,236.9843,57.87582,49.83772
1062013,317.2776,236.384,57.77419,49.76607
1062028,316.1961,235.9798,57.68588,49.71772
1062047,315.1392,235.6144,57.59915,49.67392
1062062,314.1984,235.0915,57.5216,49.6111
1062078,313.333,234.4076,57.44997,49.52871
1062095,312.3439,233.3444,57.36776,49.40005
1062114,311.4375,232.3021,57.29209,49.27327
1062127,310.5058,231.1444,57.21399,49.13168
1062144,309.4786,229.7563,57.12751,48.96083
1062161,308.5403,227.953,57.04814,48.73713
1062178,306.8968,224.2659,56.90832,48.27346
1062209,305.1794,221.1537,56.76109,47.87543
1062225,304.1269,219.2888,56.67027,47.63396
1062240,302.7851,217.2385,56.55386,47.36587
1062250,301.7685,215.7791,56.46519,47.17336
1062263,300.4779,213.949,56.35201,46.92998
1062278,299.2795,212.531,56.24632,46.73988
1062291,297.66,211.138,56.10255,46.5518
1062311,296.342,210.0815,55.98475,46.40829
1062327,295.0609,209.108,55.86955,46.27537
1062345,293.7275,208.0585,55.74892,46.13135
1062361,292.4116,207.2248,55.62914,46.01641
1062377,291.0622,206.6309,55.50555,45.93423
1062394,289.6918,205.9482,55.37923,45.83948
1062410,288.1609,205.4999,55.23716,45.77707
1062427,286.6566,204.9778,55.09656,45.70422
1062443,285.061,204.495,54.94633,45.63668
1062459,283.5782,204.2546,54.80573,45.60299
1062475,281.7929,204.0062,54.63512,45.56813
1062496,280.4826,203.8242,54.50898,45.54257
1062509,279.1072,203.887,54.37573,45.55139
1062526,277.5974,203.654,54.22846,45.51864
1062550,276.3527,203.5609,54.10626,45.50555
1062570,275.3966,203.45,54.01189,45.48994
1062582,274.7257,203.3662,53.94542,45.47814
1062594,274.0233,203.3289,53.87561,45.47288
1062608,273.3181,203.4075,53.80527,45.48396
1062627,272.7715,203.4268,53.75059,45.48667
1062643,272.176,203.3692,53.69086,45.47856
1062660,271.7356,203.3049,53.64658,45.46951
1062675,271.1377,203.2668,53.58631,45.46413
1062693,270.5634,203.1358,53.52825,45.44567
1062709,269.9212,202.9452,53.46315,45.41878
1062728,269.2504,202.7798,53.39492,45.39543
1062746,268.5329,202.6064,53.32171,45.37092
1062761,267.8986,202.4397,53.25678,45.34733
1062777,267.1273,202.4764,53.17756,45.35253
1062793,266.4122,202.3455,53.10384,45.334
1062810,265.8568,202.2679,53.04642,45.32301
1062827,265.1394,202.195,52.97201,45.31269
1062844,264.5782,202.106,52.91364,45.30007
1062861,263.9898,201.9982,52.85225,45.2848
1062878,263.4627,201.9764,52.79712,45.28171
1062894,262.8622,201.9946,52.73413,45.28429
1062910,262.4264,202.0317,52.6883,45.28954
1062927,262.2048,202.0011,52.66497,45.28521
1062946,262.0516,202.0631,52.64882,45.29399
1062960,262.0869,202.3386,52.65254,45.33303
1062976,262.0718,202.6666,52.65095,45.37943
1062993,262.2146,203.0864,52.666,45.43871
1063010,262.2932,203.3771,52.67427,45.47968
1063027,262.387,203.4677,52.68415,45.49242
1063044,262.3904,203.5311,52.68451,45.50135
1063063,262.3055,203.6624,52.67558,45.51983
1063078,262.1397,203.7054,52.65811,45.52587
1063095,261.9357,203.6127,52.63659,45.51284
1063112,261.8111,203.5483,52.62344,45.50378
1063128,261.5991,203.558,52.60105,45.50514
1063146,261.386,203.4797,52.57852,45.49413
1063161,261.2166,203.3317,52.56059,45.47328
1063177,261.0998,203.1941,52.54822,45.45389
1063194,260.9792,203.0825,52.53545,45.43816
1063211,260.9323,203.1224,52.53047,45.44378
1063226,260.8639,203.2475,52.52322,45.46141
1063244,260.8822,203.4326,52.52516,45.48749
1063260,260.9865,203.7641,52.53622,45.53412
1063279,261.1168,203.9326,52.55002,45.55781
1063294,261.2396,204.0179,52.56303,45.56978
1063311,261.3681,204.1597,52.57663,45.58968
1063330,261.4585,204.1248,52.58619,45.58478
1063346,261.4805,204.1941,52.58851,45.5945
1063361,261.5507,204.2269,52.59593,45.5991
1063379,261.5604,204.2031,52.59696,45.59576
1063395,261.5901,204.2239,52.6001,45.59869
1063412,261.5786,204.2804,52.59888,45.60661
1063428,261.6302,204.244,52.60434,45.60151
1063445,261.6875,204.368,52.61039,45.61889
1063462,261.9014,204.6359,52.63298,45.6564
1063483,262.0343,204.8427,52.647,45.68534
1063496,262.1686,205.0441,52.66116,45.71347
1063511,262.2838,205.1797,52.67329,45.73241
1063528,262.4021,205.5169,52.68575,45.77943
1063546,262.5305,205.7104,52.69926,45.8064
1063564,262.6215,205.9838,52.70884,45.84442
1063579,262.6929,206.1178,52.71634,45.86305
1063597,262.81,206.3893,52.72865,45.90074
1063618,262.4548,206.2398,52.69129,45.87998
1063631,262.3221,206.335,52.67733,45.8932
1063647,262.181,206.4086,52.66246,45.90341
1063665,261.9962,206.3846,52.64298,45.90008
1063682,261.6891,206.5835,52.61057,45.92767
1063698,261.321,206.7792,52.57164,45.95477
1063713,260.9435,206.931,52.53166,45.97579
1063730,260.6805,207.0281,52.50376,45.98922
1063747,260.4728,207.4063,52.4817,46.04148
1063764,260.4097,207.7321,52.475,46.0864
1063780,260.4622,208.0591,52.48058,46.13143
1063795,260.5427,208.3277,52.48913,46.16837
1063814,260.5831,208.5509,52.49342,46.19901
1063831,260.5705,208.9184,52.49208,46.24941
1063847,260.5379,209.266,52.48862,46.29699
1063866,260.3383,209.4751,52.4674,46.32557
1063880,260.1965,209.5016,52.45232,46.32919
1063896,260.0616,209.5398,52.43797,46.3344
1063913,259.8092,209.6168,52.41108,46.34492
1063928,259.493,209.7662,52.37735,46.3653
1063945,259.2968,209.7855,52.35639,46.36794
1063962,259.1688,209.779,52.34271,46.36705
1063979,259.0357,209.7276,52.32848,46.36003
1063994,258.8945,209.8583,52.31335,46.37786
1064012,258.8845,210.2886,52.31229,46.43648
1064029,259.0333,210.811,52.32822,46.50746
1064045,259.1242,211.2791,52.33794,46.5709
1064063,259.293,211.9317,52.35599,46.65912
1064079,259.5715,212.7176,52.38572,46.76498
1064096,259.9015,213.6974,52.42091,46.89635
1064114,260.2166,214.7604,52.45446,47.03817
1064129,260.6058,216.1072,52.49583,47.21677
1064144,260.9123,217.6548,52.52835,47.42053
1064165,261.0655,218.6629,52.54459,47.55241
1064178,261.2786,219.71,52.56715,47.68869
1064197,261.9192,221.0357,52.63485,47.86022
1064215,263.0787,221.8734,52.75686,47.96803
1064228,264.8244,222.2331,52.93926,48.01418
1064246,266.8667,222.4219,53.15073,48.03838
1064271,268.1719,222.2731,53.28478,48.0193
1064284,269.3528,222.2471,53.40535,48.01597
1064296,270.9607,222.3794,53.56843,48.03294
1064312,272.6086,222.6774,53.73427,48.07108
1064330,274.6352,223.1758,53.93644,48.13475
1064348,276.7014,223.5353,54.14056,48.18058
1064365,278.8315,223.9186,54.34891,48.22935
1064381,280.9495,224.3821,54.55402,48.28821
1064400,283.0958,224.9864,54.75976,48.36474
1064414,285.3954,225.7994,54.97792,48.46734
1064429,287.8355,226.5846,55.20683,48.56604
1064447,290.7223,227.4936,55.47429,48.67983
1064463,294.1003,228.4887,55.78273,48.80379
1064484,296.8814,229.3676,56.03304,48.91278
1064502,299.7201,230.4543,56.28524,49.04689
1064515,302.8153,231.6853,56.55649,49.19793
1064529,306.0338,232.9641,56.83447,49.35387
1064547,309.8227,234.3944,57.15652,49.52711
1064563,313.3823,236.0004,57.45405,49.72019
1064587,316.0426,237.1308,57.6733,49.85517
1064598,318.0861,238.0817,57.83994,49.96814
1064611,320.9857,239.37,58.07376,50.12035
1064630,323.337,240.7492,58.26115,50.28223
1064647,325.75,242.4772,58.45142,50.48351
1064663,328.2519,244.3504,58.64655,50.69979
1064681,330.2985,245.7881,58.80455,50.86444
1064696,332.1085,247.2944,58.94311,51.03571
1064714,333.9867,248.7514,59.08572,51.20017
1064730,335.7169,250.4879,59.21605,51.39467
1064748,337.3654,252.211,59.33931,51.58604
1064764,339.1371,254.1461,59.47079,51.79907
1064781,340.6904,255.7374,59.58522,51.97274
1064797,342.3176,257.2336,59.70427,52.13482
1064811,344.1026,258.6838,59.8339,52.29079
1064828,345.7989,260.0624,59.95617,52.43805
1064846,347.4809,261.4768,60.07651,52.58813
1064863,349.2949,263.2578,60.20532,52.77564
1064884,350.9977,264.7377,60.32532,52.93024
1064899,352.412,265.8058,60.42433,53.04114
1064914,354.2562,267.1126,60.55252,53.17604
1064931,355.9128,268.3093,60.66682,53.29884
1064947,357.7368,269.8856,60.79174,53.45953
1064963,359.5486,271.4008,60.91486,53.61285
1064979,361.2915,272.841,61.03242,53.75755
1064995,363.2714,274.0737,61.1649,53.88062
1065013,365.1436,275.0533,61.28917,53.97791
1065030,366.9517,276.0162,61.40825,54.0731
1065047,368.757,277.1224,61.52625,54.18192
1065065,370.3249,278.1969,61.62801,54.28706
1065081,371.8061,279.4301,61.72353,54.40709
1065098,373.5273,280.7775,61.8338,54.53743
1065118,374.9679,281.7655,61.92548,54.63248
1065131,376.4678,282.7729,62.02035,54.72894
1065150,378.0235,283.9283,62.11813,54.83902
1065166,379.4161,284.8973,62.20513,54.93087
1065182,380.7655,286.0429,62.28895,55.03891
1065199,382.1145,286.8847,62.37229,55.11794
1065214,383.515,287.6654,62.45832,55.19096
1065231,385.0566,288.4056,62.55245,55.25993
1065251,386.027,288.762,62.6114,55.29307
1065265,387.1803,289.2684,62.68115,55.34004
1065281,388.2904,289.7913,62.74799,55.38843
1065308,389.2301,290.296,62.80432,55.43502
1065320,389.6306,290.5859,62.82826,55.46174
1065329,390.2709,291.0674,62.86647,55.50602
1065349,390.735,291.6194,62.8941,55.55668
1065365,391.1789,292.0155,62.92048,55.59295
1065380,391.5879,292.4061,62.94474,55.62864
1065398,391.81,292.648,62.95789,55.65072
1065417,392.0374,292.8326,62.97135,55.66755
1065433,392.2566,292.9785,62.98432,55.68084
1065448,392.5173,293.0017,62.99972,55.68295
1065464,392.6618,293.103,63.00825,55.69217
1065480,392.8177,293.2969,63.01744,55.70981
1065498,392.9702,293.478,63.02644,55.72627
1065516,393.0789,293.6108,63.03284,55.73833
1065531,393.215,293.742,63.04086,55.75024
1065549,393.3496,293.8275,63.04878,55.758
1065564,393.4716,293.9539,63.05595,55.76946
1065580,393.6355,294.1038,63.06559,55.78304
1065597,393.7385,294.1013,63.07164,55.78282
1065614,393.8059,294.001,63.07561,55.77373
1065631,393.8858,293.7769,63.0803,55.75341
1065647,393.8955,293.5352,63.08087,55.73146
1065664,393.8445,293.2623,63.07787,55.70667
1065682,393.7492,292.9294,63.07228,55.67636
1065698,393.6566,292.603,63.06684,55.64661
1065713,393.465,292.2639,63.05556,55.61565
1065730,393.3429,291.8348,63.04839,55.57641
1065746,393.1866,291.2022,63.03918,55.51841
1065765,393.0671,290.5668,63.03215,55.45998
1065782,392.9101,290.0157,63.02289,55.40916
1065797,392.7636,289.3459,63.01425,55.34722
1065815,392.6188,288.5499,63.00571,55.27336
1065831,392.433,287.6707,62.99474,55.19145
1065847,392.2296,286.6721,62.98272,55.09801
1065867,392.0182,285.7109,62.97021,55.00766
1065883,391.8187,284.9058,62.95841,54.93167
1065901,391.5876,284.3343,62.94472,54.87754
1065918,391.2448,283.8842,62.92438,54.83482
1065933,390.9983,283.5308,62.90975,54.80121
1065949,390.6932,283.2231,62.89161,54.77191
1065966,390.4723,282.7836,62.87846,54.72996
1065984,390.3232,282.4716,62.86959,54.70015
1066000,390.17,281.9229,62.86045,54.64759
1066015,390.0587,281.0268,62.85382,54.56145
1066031,389.9828,279.8001,62.8493,54.44297
1066048,389.9348,277.7782,62.84643,54.24615
1066064,389.8641,275.6783,62.84221,54.03974
1066084,389.8755,273.7064,62.84289,53.84403
1066098,389.9746,270.7731,62.8488,53.54947
1066115,390.2637,267.1632,62.86604,53.18125
1066131,390.4606,264.2614,62.87777,52.8806
1066150,390.9135,260.3186,62.90471,52.46532
1066166,391.2424,256.8937,62.92424,52.09809
1066181,391.5058,253.8433,62.93987,51.76586
1066198,391.7199,250.7253,62.95256,51.42113
1066215,391.8313,247.87,62.95916,51.10083
1066232,391.8819,245.5446,62.96215,50.83663
1066249,391.935,242.854,62.96529,50.52718
1066267,391.9454,240.5589,62.96591,50.25996
1066284,391.9495,238.9385,62.96615,50.06948
1066298,391.9449,236.8351,62.96588,49.81993
1066316,391.8422,235.0876,62.9598,49.61063
1066332,391.7118,233.3434,62.95208,49.39993
1066349,391.696,231.6288,62.95115,49.19102
1066366,391.6511,230.1684,62.94848,49.01167
1066383,391.5732,228.6828,62.94386,48.82791
1066401,391.48,227.278,62.93834,48.65288
1066417,391.3619,226.3417,62.93134,48.53555
1066432,391.2384,225.2063,62.92401,48.39254
1066450,391.1272,224.1764,62.9174,48.26211
1066467,390.9398,223.0592,62.90628,48.11987
1066486,390.7984,222.2184,62.89787,48.0123
1066500,390.6222,221.4541,62.88739,47.91413
1066518,390.4594,220.7711,62.8777,47.82607
1066530,390.2164,219.9963,62.86322,47.72583
1066549,389.7368,219.3567,62.83461,47.64279
1066565,389.1953,218.9123,62.80224,47.58493
1066583,388.5838,218.5625,62.7656,47.5393
1066601,388.1625,218.2868,62.7403,47.50329
1066616,387.7,218.0988,62.71247,47.47869
1066632,387.2885,218.2106,62.68768,47.49332
1066651,387.015,218.3743,62.67117,47.51472
1066666,386.8598,218.7535,62.6618,47.56423
1066684,386.7383,218.9518,62.65446,47.59008
1066700,386.5918,219.1342,62.6456,47.61383
1066718,386.538,219.1862,62.64234,47.62061
1066735,386.4507,219.1362,62.63706,47.61409
1066752,386.3407,219.1278,62.6304,47.613
1066768,386.1512,219.1092,62.61892,47.61058
1066786,385.8414,219.0626,62.60014,47.60451
1066803,385.388,219.0201,62.57261,47.59898
1066817,384.7562,218.771,62.53415,47.56651
1066836,383.9093,218.6317,62.48245,47.54833
1066851,382.3543,218.675,62.38706,47.55399
1066871,379.7621,218.4372,62.22667,47.52293
1066890,376.2096,218.525,62.00406,47.53441
1066904,371.6729,218.6574,61.71497,47.55169
1066916,366.5811,218.7533,61.38392,47.56421
1066932,360.6777,218.9311,60.99112,47.58738
1066951,354.0973,218.9892,60.54152,47.59496
1066967,347.4041,219.0327,60.07103,47.60062
1066985,341.5989,218.512,59.6518,47.53271
1067004,336.5948,217.6909,59.2818,47.42526
1067018,331.295,216.9292,58.88097,47.32518
1067034,324.1764,215.8784,58.32757,47.18651
1067056,319.0937,214.8897,57.92154,47.05537
1067067,312.9603,213.3296,57.41903,46.84711
1067083,306.7762,211.836,56.89802,46.64621
1067100,300.9067,210.459,56.38969,46.45966
1067116,293.9105,209.2589,55.76553,46.29601
1067134,288.0068,208.5148,55.22281,46.19406
1067150,282.5186,207.8604,54.70464,46.10409
1067167,277.9943,207.3117,54.26728,46.02842
1067184,273.4028,206.9956,53.81373,45.98472
1067200,268.6378,206.7767,53.33243,45.95443
1067227,265.321,206.3483,52.99087,45.89505
1067237,263.1703,205.9983,52.76646,45.84644
1067249,260.6451,205.3897,52.5,45.76171
1067267,258.6427,204.9136,52.28638,45.69524
1067281,256.5186,204.2511,52.05751,45.6025
1067299,255.0413,203.5877,51.89693,45.50932
1067316,253.5445,202.7327,51.73305,45.38876
1067333,251.9775,201.71,51.5602,45.2439
1067360,250.6084,200.8167,51.40811,45.11674
1067371,249.6209,200.2301,51.29777,45.03294
1067384,248.2786,199.4113,51.14693,44.91556
1067403,246.7459,198.7382,50.97348,44.81869
1067421,245.195,198.1152,50.79665,44.72875
1067431,243.3495,197.633,50.58447,44.65893
1067449,241.4344,197.1299,50.36225,44.58593
1067467,239.7156,196.7802,50.16101,44.53506
1067486,238.0373,196.501,49.96288,44.4944
1067503,236.6823,196.3805,49.80171,44.47683
1067517,235.6545,196.1726,49.67873,44.44648
1067531,234.8855,196.0847,49.58631,44.43365
1067549,234.3993,195.9588,49.5277,44.41525
1067566,234.403,195.825,49.52815,44.39568
1067587,234.285,195.6795,49.5139,44.3744
1067601,234.5278,195.5157,49.5432,44.35041
1067617,234.6146,195.3247,49.55368,44.32243
1067633,234.7112,195.1064,49.56531,44.29039
1067649,234.8417,194.82,49.58104,44.24832
1067666,234.8901,194.6264,49.58687,44.21985
1067685,234.9439,194.6044,49.59335,44.21662
1067701,234.99,194.6386,49.59889,44.22165
1067717,235.0671,194.6874,49.60817,44.22883
1067733,235.1692,194.6536,49.62045,44.22386
1067751,235.2596,194.7847,49.63132,44.24314
1067767,235.3363,194.8089,49.64053,44.2467
1067783,235.4069,194.8584,49.64901,44.25397
1067800,235.5063,194.9099,49.66094,44.26154
1067816,235.6577,195.1453,49.67912,44.2961
1067839,235.7009,195.2801,49.6843,44.31588
1067854,235.8284,195.4402,49.69958,44.33935
1067869,235.993,195.6293,49.7193,44.36705
1067884,236.1193,195.6437,49.73442,44.36916
1067903,236.2421,195.6826,49.74911,44.37485
1067918,236.4004,195.704,49.76804,44.37799
1067935,236.6613,195.7258,49.7992,44.38118
1067950,237.0128,195.773,49.84111,44.38809
1067967,237.6062,195.742,49.91172,44.38355
1067985,238.0869,195.7435,49.96875,44.38377
1068002,238.5651,195.9293,50.02537,44.41095
1068018,238.93,196.0709,50.06847,44.43163
1068035,239.1992,196.2048,50.10022,44.45119
1068063,239.4915,196.3629,50.13465,44.47425
1068080,239.6234,196.4717,50.15017,44.49013
1068090,239.659,196.448,50.15435,44.48668
1068101,239.6566,196.47,50.15407,44.48988
1068117,239.6628,196.462,50.15481,44.4887
1068134,239.7293,196.4032,50.16262,44.48014
1068149,239.8166,196.3757,50.17289,44.47613
1068170,239.8834,196.5757,50.18074,44.50528
1068184,239.994,196.4695,50.19373,44.4898
1068203,240.0851,196.3607,50.20442,44.47394
1068217,240.185,196.1479,50.21614,44.44289
1068233,240.3254,195.9861,50.2326,44.41924
1068253,240.6052,196.0513,50.26538,44.42876
1068267,240.9419,196.2232,50.30477,44.45388
1068284,241.3616,196.3409,50.35376,44.47104
1068302,241.8056,196.487,50.40548,44.49236
1068318,242.1407,196.6609,50.44445,44.51769
1068338,242.4289,196.8304,50.47791,44.54237
1068354,242.58,196.8889,50.49544,44.55088
1068371,242.6449,196.7078,50.50296,44.52452
1068387,242.6457,196.6121,50.50304,44.51059
1068407,242.6864,196.5798,50.50776,44.50589
1068422,242.6719,196.4791,50.50608,44.4912
1068433,242.7531,196.4208,50.51549,44.4827
1068451,242.8007,196.4629,50.521,44.48884
1068469,242.9476,196.4753,50.53801,44.49064
1068488,243.1238,196.4285,50.55839,44.48382
1068505,243.2914,196.4407,50.57776,44.48561
1068520,243.5581,196.5171,50.60855,44.49674
1068536,243.7994,196.579,50.63638,44.50577
1068555,243.984,196.6551,50.65764,44.51685
1068570,244.2253,196.7691,50.6854,44.53345
1068591,244.6277,196.9742,50.73163,44.56329
1068609,244.8742,197.0527,50.75991,44.57471
1068620,245.2478,197.1389,50.8027,44.58723
1068633,245.5253,197.1499,50.83442,44.58884
1068651,245.8055,197.1094,50.86642,44.58295
1068670,246.0622,197.1319,50.8957,44.58622
1068687,246.3012,197.1135,50.92292,44.58355
1068703,246.5435,197.153,50.95049,44.58928
1068724,246.6979,197.0984,50.96804,44.58135
1068737,246.7689,197.0703,50.9761,44.57727
1068750,246.8004,197.1427,50.97967,44.58778
1068769,246.913,197.102,50.99246,44.58187
1068786,247.2156,197.107,51.02678,44.58259
1068803,247.4755,197.2623,51.05621,44.60516
1068820,247.5412,197.4505,51.06365,44.63247
1068834,247.617,197.9245,51.07222,44.70115
1068852,247.703,198.2538,51.08195,44.74879
