Time Stamp(ms),Intersection,,Angle,
,x,y,x,y
705631.6,315.1909,245.7013,57.6034,50.85453
705649.1,315.3596,245.6539,57.61727,50.84912
705666.2,315.7212,245.6534,57.64696,50.84906
705682.9,316.0005,245.9048,57.66985,50.87775
705700.3,316.3597,246.3595,57.69926,50.92956
705716.4,316.6978,246.6885,57.7269,50.96697
705732.1,316.9454,247.087,57.74711,51.01221
705750,317.1751,247.4341,57.76584,51.05153
705766.1,317.4205,247.5345,57.78583,51.0629
705782.6,317.5761,247.4737,57.7985,51.05601
705801.2,317.6104,247.4594,57.80128,51.0544
705817,317.5912,247.6389,57.79972,51.0747
705831.5,317.4732,247.7658,57.79012,51.08905
705849.8,317.2241,247.8342,57.76984,51.09678
705866.8,316.9849,247.8506,57.75033,51.09864
705882.4,316.7907,247.5612,57.73448,51.06591
705899.6,316.7095,247.3417,57.72786,51.04106
705916,316.6452,247.2077,57.7226,51.02589
705933.3,316.5372,247.3199,57.71378,51.0386
705949.3,316.4254,247.4856,57.70464,51.05735
705968.1,316.2821,247.8595,57.69291,51.09963
705984.4,316.2134,248.0764,57.68729,51.12413
706002.2,316.1306,248.3831,57.68051,51.15871
706018.3,316.1021,248.7346,57.67818,51.19828
706033.8,316.066,249.153,57.67522,51.2453
706049.9,316.2062,249.4383,57.6867,51.27731
706067.9,316.294,249.5401,57.69389,51.28872
706084.4,316.282,249.8976,57.69291,51.32875
706099.8,316.1614,250.4347,57.68303,51.38874
706117.3,316.0048,251.3345,57.67021,51.4889
706137,315.9788,251.8043,57.66808,51.54102
706150.6,316.1424,252.0407,57.68148,51.5672
706169.8,316.3752,252.0369,57.70053,51.56679
706186.3,316.6718,251.887,57.72478,51.55018
706202.3,316.8649,251.7211,57.74054,51.5318
706219.3,316.8931,251.6344,57.74284,51.52219
706233.8,316.6437,251.7056,57.72248,51.53009
706250.3,316.2818,251.8771,57.69289,51.54908
706267,315.764,252.1727,57.65047,51.58181
706283.8,315.142,252.543,57.59938,51.62273
706303.4,314.6261,252.8609,57.5569,51.65781
706317.3,314.1459,253.1453,57.51726,51.68915
706334.1,313.5912,253.499,57.47137,51.72805
706350.4,313.0811,253.8571,57.42907,51.76738
706367,312.636,254.0388,57.39208,51.78731
706386.1,312.1739,254.1785,57.35359,51.80261
706403.4,311.5087,254.2353,57.29805,51.80883
706421.2,310.9568,254.2565,57.25184,51.81115
706437.7,310.3844,254.1428,57.2038,51.7987
706455.1,309.8721,254.0945,57.16069,51.79341
706470.4,309.242,254.1578,57.10752,51.80034
706488.3,308.6409,254.3007,57.05667,51.81599
706508.7,308.1908,254.4647,57.0185,51.83394
706524.3,307.8635,254.4908,56.99069,51.83679
706540.3,307.3856,254.5853,56.95002,51.84713
706554.3,306.69,254.7039,56.89065,51.8601
706573.9,305.7289,255.0309,56.80832,51.8958
706587.9,304.7286,255.281,56.72224,51.92307
706604.8,303.3735,255.4809,56.605,51.94483
706620.9,301.4844,255.8035,56.44033,51.97992
706638.9,299.7398,256.0988,56.28699,52.01199
706652.3,297.5363,256.4081,56.09152,52.04554
706669.8,294.2711,256.888,55.79819,52.09748
706687.4,290.8575,257.3705,55.48673,52.14958
706705.7,287.0792,258.0549,55.13616,52.22329
706721.3,282.876,259.0454,54.73879,52.32951
706740,278.8911,260.0174,54.35472,52.43326
706754.8,274.7878,261.2372,53.95159,52.56278
706770.5,271.1946,262.3683,53.59205,52.68219
706786.8,267.6886,263.6864,53.23524,52.82053
706803.1,263.9278,265.2025,52.84577,52.97857
706821.6,260.8192,266.401,52.51848,53.10269
706838.3,257.7434,267.5045,52.18977,53.21634
706854.1,254.6056,268.5492,51.84935,53.32338
706870.4,251.6766,269.5438,51.52687,53.42479
706885.6,248.8553,270.4034,51.21186,53.51204
706904.7,246.0168,271.3156,50.89053,53.60425
706921.1,243.8773,271.97,50.64535,53.67016
706936.9,241.6677,272.6488,50.38943,53.7383
706953.6,239.3094,273.2905,50.1132,53.80251
706972.2,237.3926,273.7781,49.88632,53.85118
706987,235.2207,274.3374,49.62664,53.90686
707004.8,233.1514,274.9758,49.37663,53.97023
707019.9,231.1744,275.5481,49.13535,54.02687
707038.8,229.395,276.1194,48.91617,54.08327
707056.2,227.6905,276.6523,48.7044,54.13574
707072.1,226.1706,277.1488,48.51405,54.18451
707086.6,224.7034,277.6159,48.32893,54.23028
707106.2,223.3745,278.131,48.16009,54.28063
707120.3,222.0826,278.5864,47.99488,54.32505
707137,221.0214,279.0383,47.85838,54.36903
707152.3,219.7795,279.5746,47.69771,54.42111
707173.9,218.9188,279.9224,47.58578,54.45481
707191.4,218.1366,280.2418,47.48364,54.48571
707204.1,217.5874,280.2673,47.41169,54.48818
707223.4,217.2334,280.1991,47.3652,54.48158
707238.1,216.952,280.14,47.32819,54.47587
707253.6,216.7811,279.9805,47.30569,54.46043
707273.9,216.9547,279.7084,47.32854,54.43408
707288.9,217.104,279.288,47.34819,54.3933
707305.5,217.1912,278.8278,47.35965,54.34856
707322.5,217.252,278.478,47.36765,54.31449
707339.3,217.219,278.336,47.36331,54.30064
707355.5,217.0559,278.2532,47.34187,54.29256
707374.1,216.7684,278.3099,47.30402,54.2981
707391.3,216.6064,278.3694,47.28267,54.3039
707404.8,216.5551,278.3997,47.2759,54.30685
707422.7,216.4697,278.6196,47.26464,54.32829
707440.9,216.4941,278.7029,47.26786,54.3364
707455.6,216.596,278.7512,47.28129,54.3411
707473.4,216.6583,278.8591,47.2895,54.3516
707489.6,216.6744,278.9195,47.29163,54.35748
707504.4,216.7924,278.773,47.30718,54.34323
707525.5,216.9324,278.6067,47.3256,54.32703
707539.8,216.986,278.33,47.33266,54.30006
707558.9,217.078,278.2354,47.34477,54.29082
707581.2,217.1134,278.1125,47.34942,54.27882
707590.6,217.1421,278.1126,47.3532,54.27883
707604.9,217.2519,278.0254,47.36763,54.27032
707625.3,217.2638,278.1016,47.36919,54.27776
707639.6,217.2354,278.1286,47.36547,54.2804
707656.7,217.2531,278.1868,47.36779,54.28608
707671.6,217.2684,278.2385,47.36979,54.29113
707688.4,217.3833,278.3008,47.3849,54.2972
707708.3,217.4264,278.3647,47.39055,54.30343
707725.4,217.4984,278.4433,47.40001,54.31111
707740.3,217.6087,278.5388,47.41448,54.32042
707758.3,217.7532,278.5337,47.43343,54.31992
707774.1,217.9077,278.5485,47.45368,54.32135
707792.4,218.0966,278.5321,47.47841,54.31976
707807.6,218.3614,278.4681,47.51304,54.31352
707825.4,218.6002,278.3097,47.54422,54.29808
707842.1,218.8109,278.2732,47.57171,54.29451
707857.6,219.1973,278.1346,47.62204,54.28098
707875.2,219.6534,277.9498,47.68134,54.26293
707890.9,220.2505,277.6902,47.75876,54.23754
707907.3,220.8028,277.3908,47.83017,54.20823
707926.8,221.3023,277.1411,47.89458,54.18375
707942.1,221.8158,277.0414,47.96064,54.17397
707958.1,222.4458,276.9586,48.04144,54.16583
707975.3,223.1933,276.8138,48.13698,54.15161
707991.1,223.7617,276.6407,48.2094,54.13459
708009.1,224.3133,276.4833,48.27948,54.11911
708025.3,225.0073,276.5866,48.36738,54.12928
708041.5,225.8963,276.6169,48.47954,54.13226
708059,227.0459,276.6425,48.62385,54.13477
708075.1,228.9027,276.4298,48.85519,54.11385
708090.6,230.6708,276.2284,49.07352,54.09402
708109.3,233.0864,276.1924,49.36873,54.09047
708129.2,235.3871,276.1594,49.64663,54.08722
708143,237.5872,275.9178,49.90945,54.06339
708159.2,239.7507,275.6202,50.16515,54.034
708183.3,240.9354,275.5371,50.304,54.02579
708200,241.9595,275.5235,50.42339,54.02444
708210.6,242.7859,275.557,50.51929,54.02776
708223.8,243.7333,275.6226,50.62875,54.03424
708241.5,244.4485,275.779,50.71106,54.04969
708258.9,245.2543,275.8391,50.80344,54.05562
708274.3,246.0765,276.0052,50.89733,54.07201
708290.9,246.7112,276.054,50.96955,54.07682
708307.8,247.2862,275.9597,51.03477,54.06752
708325.3,247.7207,275.7677,51.08395,54.04857
708342.1,248.2081,275.5647,51.13898,54.02851
708358.9,248.5945,275.412,51.18252,54.01342
708374.8,249.0937,275.2742,51.23864,53.99978
708391.3,249.593,275.1631,51.29464,53.98879
708407.4,250.2093,275.0221,51.36358,53.97482
708424.2,250.706,274.9083,51.41899,53.96354
708441.8,251.0187,274.8227,51.4538,53.95504
708457.8,251.3463,274.705,51.49021,53.94337
708484.5,251.4889,274.7108,51.50604,53.94395
708497.9,251.6899,274.7038,51.52834,53.94325
708509,251.8957,274.7056,51.55115,53.94343
708527.4,252.2083,274.6933,51.58575,53.94221
708544.2,252.4999,274.6274,51.61798,53.93567
708563.2,252.9539,274.6007,51.66806,53.93302
708581.4,253.3805,274.57,51.71503,53.92997
708594.8,254.0346,274.5082,51.78684,53.92383
708611.3,255.3518,274.4062,51.93078,53.91369
708633.3,256.1458,274.3016,52.0171,53.9033
708646.8,257.4989,274.2669,52.16343,53.89985
708668.8,258.3799,274.1937,52.25819,53.89256
708688,260.1677,274.2543,52.44926,53.89859
708706.4,261.9078,274.2963,52.63365,53.90277
708726.3,263.8081,274.2949,52.83326,53.90263
708745.1,265.7367,274.3641,53.03398,53.90951
708769.4,268.3627,274.4693,53.30431,53.91997
708788.3,270.9049,274.6841,53.56279,53.94129
708807.1,273.7027,274.9413,53.84365,53.96681
708827.4,276.524,275.1207,54.12312,53.98458
708844.9,279.2343,275.28,54.38808,54.00036
708860.7,282.1282,275.3692,54.66727,54.00918
708879.9,284.6337,275.3328,54.90592,54.00558
708898.7,287.3781,275.2171,55.16412,53.99413
708918.6,289.8465,274.9184,55.39354,53.96453
708937.9,291.8373,274.7086,55.57664,53.94372
708956.5,293.7509,274.7295,55.75105,53.9458
708978.2,295.4113,274.799,55.90113,53.95269
708995.4,296.9406,274.8189,56.03833,53.95467
709010.4,298.2307,274.8153,56.15334,53.95432
709037.1,299.3089,274.8494,56.24891,53.9577
709049.5,300.259,274.9645,56.33275,53.9691
709068.8,301.2957,275.0211,56.42381,53.97472
709087.1,302.3179,275.2348,56.51316,53.99588
709107.6,303.6173,275.3952,56.62615,54.01175
709124.3,304.8222,275.4973,56.73031,54.02185
709142.7,305.849,275.4804,56.81862,54.02019
709160.7,307.0829,275.4664,56.92421,54.0188
709185.1,308.3542,275.4118,57.03236,54.0134
709201,309.7735,275.4856,57.15238,54.02069
709216.1,311.3679,275.5911,57.28627,54.03113
709235.5,313.3811,275.6386,57.45396,54.03582
709255.1,315.5464,275.7401,57.63261,54.04585
709273.6,317.9948,275.6521,57.83253,54.03715
709291.9,320.3477,275.4977,58.02258,54.02189
709309.9,322.9431,275.1349,58.2299,53.98599
709327.9,326.0695,274.658,58.47645,53.9387
709350.3,328.5685,274.0332,58.67109,53.87659
709364.4,331.4302,273.2885,58.89132,53.80231
709382.8,334.0887,272.5958,59.09343,53.73299
709403,336.6319,272.0392,59.28457,53.67712
709425.8,339.2273,271.6467,59.47745,53.63763
709441.4,341.7122,271.3771,59.66008,53.61046
709462.3,343.922,271.3719,59.82084,53.60994
709477.9,346.134,271.3945,59.98021,53.61221
709493.4,349.0171,271.3746,60.18566,53.61021
709512.9,351.7437,271.357,60.37762,53.60843
709530.6,354.7337,271.4659,60.58556,53.61941
709549.9,357.8039,271.6927,60.79632,53.64226
709570.4,360.6713,271.821,60.99069,53.65517
709588.2,363.4405,271.9608,61.17617,53.66924
709606.6,365.9659,272.1394,61.34344,53.68718
709627.8,368.3311,272.155,61.4985,53.68875
709646.4,370.2909,272.2128,61.62581,53.69456
709664.6,371.9038,272.3149,61.72982,53.70481
709682.2,373.2291,272.5097,61.81475,53.72435
709706.5,374.339,272.5233,61.88552,53.72571
709720.3,375.1449,272.4858,61.9367,53.72196
709742.6,375.843,272.4621,61.9809,53.71957
709759.8,376.188,272.5599,62.0027,53.72939
709774.9,376.506,272.6958,62.02276,53.74301
709794.6,376.8402,272.8081,62.04381,53.75426
709815.4,377.0434,272.9539,62.0566,53.76885
709829.7,377.2357,273.0504,62.0687,53.77851
709846.4,377.4389,273.1855,62.08146,53.79202
709865.6,377.6901,273.3245,62.09723,53.80591
709887.9,377.9526,273.4146,62.11369,53.81491
709906,378.2196,273.4473,62.13042,53.81818
709923.7,378.4586,273.4489,62.14536,53.81834
709941.9,378.7575,273.4676,62.16405,53.8202
709963.9,379.0808,273.4502,62.18423,53.81847
709983.6,379.2705,273.3604,62.19606,53.80949
709998.2,379.3512,273.327,62.20109,53.80616
710012.4,379.4658,273.1347,62.20823,53.78694
710032.3,379.4758,273.0498,62.20885,53.77845
710050,379.4231,273.0732,62.20556,53.78079
710069,379.3339,273.1362,62.20001,53.78709
710092,379.2715,273.2151,62.19612,53.79498
710112.8,379.2005,273.2813,62.19169,53.80159
710127.8,379.1147,273.363,62.18634,53.80976
710146.1,379.0672,273.5109,62.18338,53.82452
710165.8,379.0003,273.6694,62.17921,53.84034
710181.4,379.0086,273.7147,62.17973,53.84485
710201.8,379.0309,273.8086,62.18111,53.85422
710218.9,379.1497,273.6545,62.18853,53.83885
710236,379.3235,273.5444,62.19936,53.82787
710256.9,379.6298,273.5077,62.21843,53.82421
710278.7,379.9066,273.454,62.23566,53.81884
710294.9,380.3278,273.335,62.26181,53.80696
710316.9,380.8305,273.2106,62.29298,53.79453
710330.8,381.2183,273.1613,62.31698,53.7896
710347.4,381.6201,272.9993,62.3418,53.7734
710366.4,381.8557,272.9181,62.35634,53.76527
710385.4,381.9585,272.7849,62.36268,53.75193
710403.3,381.9322,272.6427,62.36105,53.73769
710423.8,381.8129,272.6154,62.3537,53.73495
710445.1,381.6707,272.6809,62.34493,53.74152
710461.5,381.6237,272.7285,62.34202,53.74629
710478.4,381.4839,272.8791,62.3334,53.76137
710498.4,381.4008,273.0276,62.32826,53.77623
710516.8,381.3086,273.2373,62.32256,53.7972
710535.8,381.2082,273.577,62.31635,53.83112
710551.4,381.1992,273.9196,62.3158,53.86527
710574.1,381.2206,274.239,62.31712,53.89708
710591.5,381.2354,274.5638,62.31803,53.92935
710609.7,381.2129,274.7962,62.31664,53.95242
710629.3,381.2644,274.8037,62.31983,53.95317
710647.6,381.3736,274.6713,62.32658,53.94003
710665.4,381.4814,274.5012,62.33324,53.92314
710682.6,381.5335,274.4204,62.33646,53.91511
710699.3,381.578,274.2442,62.33921,53.89758
710716.9,381.693,274.0708,62.3463,53.88034
710737.5,381.7827,273.88,62.35184,53.86133
710755.3,381.8976,273.7105,62.35892,53.84444
710776.4,381.9259,273.5699,62.36066,53.83041
710793.4,381.9477,273.3433,62.36201,53.80779
710811.4,381.9666,273.1171,62.36317,53.78518
710830.8,381.9398,272.916,62.36153,53.76506
710849.3,381.8546,272.8528,62.35627,53.75874
710864,381.7665,272.8028,62.35084,53.75373
710883.4,381.7057,272.7591,62.34708,53.74935
710900.9,381.6841,272.8321,62.34576,53.75666
710923.8,381.713,272.9844,62.34753,53.77191
710938.1,381.8058,273.1676,62.35326,53.79023
710957.1,381.909,273.334,62.35963,53.80687
710977.3,382.0715,273.4082,62.36964,53.81427
710995.3,382.275,273.4524,62.38217,53.81869
711013.2,382.42,273.4485,62.3911,53.81829
711031.2,382.5506,273.4678,62.39914,53.82022
711048.6,382.6058,273.3262,62.40253,53.80608
711066.8,382.5638,273.1989,62.39995,53.79335
711089.4,382.4827,273.148,62.39495,53.78827
711105,382.279,273.1154,62.38242,53.78502
711127.3,382.1059,273.1906,62.37176,53.79253
711145.1,381.9664,273.2514,62.36317,53.79861
711163.7,381.925,273.2409,62.36061,53.79756
711181.8,381.989,273.2173,62.36456,53.79519
711201.5,382.0052,273.2198,62.36555,53.79545
711216.8,382.081,273.27,62.37022,53.80046
711234.3,382.1542,273.3399,62.37474,53.80745
711255,382.1911,273.431,62.37701,53.81655
711274.8,382.2288,273.2987,62.37933,53.80333
711292.5,382.2422,273.2099,62.38016,53.79446
711312.1,382.2165,273.1227,62.37857,53.78574
711332,382.1515,273.1409,62.37457,53.78756
711347.6,382.1408,273.1951,62.37391,53.79298
711366.5,382.2019,273.2388,62.37767,53.79735
711383.2,382.2851,273.2577,62.3828,53.79923
711400.7,382.4338,273.3311,62.39195,53.80656
711420.1,382.5634,273.3819,62.39992,53.81164
711438.8,382.7204,273.4752,62.40957,53.82096
711457.3,382.8297,273.5872,62.41628,53.83214
711476.4,382.8916,273.7254,62.42009,53.84592
711497.1,382.8986,273.7767,62.42051,53.85103
711515.2,382.7878,273.8031,62.41371,53.85367
711533.4,382.659,273.6904,62.4058,53.84243
711550.7,382.6066,273.6041,62.40258,53.83382
711574.6,382.4281,273.528,62.3916,53.82623
711587.9,382.3112,273.3394,62.3844,53.8074
711608,382.2218,273.0805,62.3789,53.78152
711624.6,382.1287,272.8316,62.37317,53.75661
711645.4,382.0579,272.6376,62.3688,53.73717
711664.6,382.0353,272.5486,62.36741,53.72826
711682.4,382.0998,272.5817,62.37138,53.73157
711699.1,382.1248,272.561,62.37293,53.7295
711716.4,382.1767,272.6427,62.37612,53.73769
711735.4,382.2761,272.6906,62.38224,53.74249
711753.2,382.3495,272.6129,62.38676,53.73471
711772.6,382.4196,272.6685,62.39107,53.74027
711793.9,382.4477,272.6511,62.3928,53.73853
711812.8,382.4015,272.6285,62.38996,53.73626
711830.9,382.2618,272.7897,62.38136,53.75242
711849.4,382.1186,272.722,62.37254,53.74563
711868.2,382.037,272.5811,62.36752,53.73151
711885,381.9813,272.5299,62.36408,53.72638
711902,381.9335,272.3654,62.36114,53.70988
711919.4,381.8912,272.3406,62.35853,53.70739
711939.9,381.8533,272.3806,62.35619,53.7114
711959.3,381.8709,272.4907,62.35728,53.72245
711978.2,381.8677,272.4955,62.35708,53.72293
711997.4,381.8549,272.5132,62.35629,53.7247
712018,381.8241,272.5419,62.35439,53.72758
712034.7,381.8582,272.5615,62.35649,53.72955
712051,381.8817,272.6818,62.35794,53.74161
712068.6,381.9113,272.9626,62.35976,53.76972
712087.3,381.9023,273.4625,62.35921,53.81969
712107.4,381.826,274.0686,62.35451,53.88012
712126.5,381.756,274.8596,62.35019,53.95871
712151.1,381.5935,275.5232,62.34016,54.02441
712165.3,381.3733,276.5897,62.32656,54.12958
712182.6,381.1709,277.9591,62.31405,54.26384
712202.1,381.0753,279.0463,62.30813,54.36981
712222.4,381.0631,280.2547,62.30738,54.48695
712238.6,381.0205,281.0749,62.30474,54.56609
712257.3,380.9095,281.5696,62.29787,54.61367
712276.8,380.847,281.9048,62.294,54.64585
712294.1,380.6721,282.1299,62.28317,54.66743
712314.3,380.4495,282.2637,62.26937,54.68024
712333.6,380.1577,282.2298,62.25126,54.677
712350.1,379.9108,282.2187,62.23592,54.67593
712369.9,379.7026,282.0582,62.22297,54.66055
712385.1,379.5481,281.9735,62.21335,54.65244
712404.3,379.4034,282.0099,62.20434,54.65593
712421.8,379.2681,282.0131,62.19591,54.65623
712445.9,379.2429,282.0244,62.19434,54.65731
712464.6,379.2261,282.1505,62.19329,54.6694
712482.2,379.2727,282.3302,62.1962,54.68661
712500.1,379.2887,282.5273,62.19719,54.70547
712517.9,379.4208,282.6533,62.20543,54.71751
712534.8,379.5546,282.812,62.21376,54.73268
712552.2,379.7244,282.924,62.22432,54.74337
712572.2,379.8674,283.0928,62.23322,54.75948
712590.3,379.9368,283.1809,62.23753,54.76788
712609,379.9362,283.3035,62.23749,54.77957
712630.7,379.9296,283.3288,62.23709,54.78198
712646.9,379.8691,283.3937,62.23332,54.78816
712666,379.8126,283.4126,62.2298,54.78996
712684.6,379.8013,283.4496,62.22911,54.79348
712703.4,379.7539,283.5388,62.22616,54.80197
712720.6,379.7149,283.5732,62.22374,54.80525
712738.6,379.6039,283.5913,62.21683,54.80697
712755.9,379.5576,283.6443,62.21394,54.81201
712775.1,379.567,283.6596,62.21453,54.81347
712793.8,379.5454,283.6343,62.21318,54.81106
712813.1,379.5146,283.5082,62.21127,54.79906
712831.6,379.4669,283.3222,62.20829,54.78135
712850.3,379.4144,283.0692,62.20502,54.75723
712868.5,379.3526,282.7809,62.20118,54.72971
712886.8,379.2872,282.5683,62.1971,54.70939
712903.7,379.1375,282.2886,62.18776,54.68262
712921.9,378.9328,282.0411,62.175,54.65892
712940.1,378.7492,281.7877,62.16353,54.63461
712962.9,378.5937,281.6545,62.15382,54.62183
712979.1,378.5421,281.7032,62.15059,54.62651
712990.2,378.4715,281.7578,62.14617,54.63174
713006.3,378.5788,281.7881,62.15288,54.63465
713022.6,378.7006,281.8525,62.1605,54.64083
713037.6,378.7472,281.8781,62.1634,54.64328
713051.2,378.9471,282.0988,62.17588,54.66445
713068.1,379.1301,282.3557,62.18731,54.68906
713082.9,379.1963,282.5133,62.19143,54.70413
713096,379.2715,282.6883,62.19612,54.72086
713114,379.2501,282.8427,62.19479,54.73561
713130.1,379.2119,282.9407,62.19241,54.74496
713144,379.0984,282.968,62.18533,54.74757
713156.8,379.0031,282.9639,62.17939,54.74718
713173.4,378.8782,282.8494,62.17159,54.73625
713190.3,378.7837,282.763,62.16568,54.728
713205.4,378.6847,282.5479,62.1595,54.70744
713224,378.5334,282.2979,62.15004,54.68352
713240.3,378.4561,282.0601,62.14521,54.66074
713255.5,378.421,281.9346,62.14301,54.6487
713270.7,378.353,281.6948,62.13876,54.62569
713288.6,378.3766,281.6297,62.14024,54.61945
713302.4,378.3833,281.5859,62.14066,54.61524
713318.6,378.4505,281.7099,62.14486,54.62714
713337.6,378.5569,281.8049,62.15152,54.63626
713352.3,378.6801,281.8037,62.15922,54.63615
713368.6,378.824,281.9592,62.1682,54.65106
713386.4,378.8519,282.1495,62.16994,54.6693
713403.2,378.928,282.1881,62.17469,54.673
713420.1,378.9129,282.3463,62.17376,54.68815
713436.2,378.9427,282.4568,62.17561,54.69872
713452.9,378.9696,282.5517,62.17729,54.7078
713469.8,379.0752,282.5875,62.18388,54.71123
713488.3,379.0816,282.503,62.18428,54.70315
713505.2,379.0887,282.4907,62.18473,54.70197
713521.6,379.0587,282.517,62.18285,54.70449
713540.6,378.9659,282.4612,62.17706,54.69914
