Time Stamp(ms),Intersection,,Angle,
,x,y,x,y
962809.8,312.8313,246.7955,57.40832,50.97912
962827,313.055,246.5461,57.4269,50.95078
962844.3,313.4153,246.2646,57.45679,50.91876
962858.1,313.6461,246.3398,57.47591,50.92731
962875.3,313.8572,246.716,57.49339,50.97009
962893.5,313.9974,246.8792,57.50498,50.98862
962910.4,314.1505,246.8062,57.51764,50.98034
962927.3,314.3241,246.346,57.53198,50.92802
962946.1,314.5194,245.9306,57.5481,50.8807
962963.3,314.6679,245.7898,57.56034,50.86464
962980.9,314.7434,245.8048,57.56656,50.86634
962995.4,314.8033,245.839,57.5715,50.87024
963010.1,314.8064,245.7244,57.57175,50.85717
963026.6,314.7998,245.5752,57.57121,50.84013
963044.1,314.8481,245.7102,57.57519,50.85555
963062.8,314.7776,245.8277,57.56938,50.86896
963081.4,314.7022,245.614,57.56317,50.84457
963094.9,314.6279,245.0472,57.55704,50.77974
963110,314.6822,244.4308,57.56152,50.70903
963127.7,314.9254,243.8582,57.58155,50.64315
963143.9,315.3415,243.5499,57.61578,50.6076
963161.9,315.8031,243.5944,57.65368,50.61274
963176.9,316.3293,243.8678,57.69678,50.64426
963192.7,316.6473,244.0948,57.72277,50.6704
963209.8,316.6701,244.534,57.72464,50.72088
963226.7,316.5182,245.1288,57.71223,50.78907
963244.7,316.3079,245.5757,57.69502,50.84018
963262.3,315.9,246.1538,57.66162,50.90614
963279.6,315.5123,246.5343,57.62981,50.94944
963296.6,315.1808,246.7178,57.60257,50.97029
963312.3,315.1199,246.5413,57.59756,50.95024
963327.6,315.3062,246.3859,57.61287,50.93256
963346.3,315.8365,246.0635,57.65641,50.89585
963361.1,317.3293,245.2482,57.7784,50.80274
963378.9,318.8802,244.6227,57.90428,50.73106
963394.8,321.1307,243.8391,58.08538,50.64095
963413.1,323.1836,243.3701,58.24899,50.58685
963429.4,325.4083,242.9596,58.4246,50.5394
963444,327.8492,242.5781,58.61528,50.49522
963460.3,330.1643,242.2788,58.79424,50.46049
963476.6,332.5151,242.0049,58.97408,50.42866
963492.7,335.3114,241.6621,59.18559,50.38878
963512.9,337.8951,241.2333,59.37873,50.33879
963526.6,340.7172,240.8509,59.58719,50.29412
963546.3,343.1073,240.6212,59.76175,50.26726
963559.9,345.3082,240.5697,59.92089,50.26122
963576.1,347.5954,240.5473,60.08467,50.2586
963592.8,349.5374,240.7802,60.22246,50.28586
963609.3,351.4548,240.7902,60.35739,50.28703
963626.3,353.2222,241.001,60.48077,50.31166
963644.3,354.7399,241.1649,60.58598,50.3308
963660.1,356.0109,241.5067,60.67357,50.37068
963676.9,357.3267,241.7658,60.76374,50.40085
963693.4,358.6471,241.9552,60.85372,50.42289
963711.6,359.4291,242.233,60.90677,50.45518
963727.3,360.2333,242.3809,60.96115,50.47234
963745.2,360.8584,242.5605,61.00329,50.49318
963763.4,361.4449,242.6432,61.04272,50.50276
963780.6,362.093,242.7104,61.08619,50.51054
963796.8,362.4044,242.9019,61.10703,50.53272
963813.1,362.7407,243.1541,61.1295,50.56189
963828.3,363.0594,243.5535,61.15077,50.60802
963847.6,363.2933,243.8619,61.16636,50.64358
963861.4,363.4473,244.1517,61.17662,50.67694
963877.1,363.4392,244.6968,61.17608,50.73957
963893.2,363.5022,245.2876,61.18028,50.80725
963915.6,363.4146,246.2772,61.17444,50.92019
963931,363.2755,247.3729,61.16518,51.0446
963948.3,363.0816,249.0709,61.15225,51.23608
963963.4,362.7391,251.6431,61.12939,51.52315
963978.9,362.36,254.3486,61.10405,51.82124
963993.6,361.8536,257.7212,61.07015,52.18738
964010.3,361.2948,261.7603,61.03264,52.61808
964028.1,360.894,264.814,61.00569,52.93818
964044.4,360.3864,268.0799,60.97149,53.27536
964062.3,359.9329,270.6483,60.94086,53.53684
964078.1,359.3166,272.6144,60.89915,53.73485
964094.2,358.6682,274.5118,60.85516,53.92419
964111.8,358.0065,276.2506,60.81013,54.0962
964128.7,357.3065,277.7809,60.76236,54.24642
964145.1,356.5963,278.942,60.71375,54.35966
964161.6,355.8933,279.9611,60.66549,54.45855
964178.9,355.2145,280.6638,60.61875,54.52647
964195.8,354.3391,281.2261,60.55826,54.58065
964211.8,353.5058,281.956,60.50048,54.65076
964231.1,352.694,282.6946,60.444,54.72147
964250,352.0615,283.5647,60.39985,54.80444
964275.4,351.5767,284.6819,60.36593,54.91048
964293.6,351.1689,285.8248,60.33734,55.01839
964303.1,350.7602,286.8603,60.30864,55.11566
964312.6,350.0937,288.8199,60.26172,55.29845
964327.7,349.2385,291.1116,60.20133,55.51009
964345.1,348.4174,293.5453,60.14314,55.73239
964360.8,347.6827,296.2018,60.09089,55.97218
964383,347.0918,298.4802,60.04875,56.1755
964400.3,346.5772,300.5554,60.01196,56.35882
964416.2,346.0805,302.0573,59.97638,56.49042
964430.9,345.6249,303.252,59.94367,56.59446
964448.3,345.1531,303.9169,59.90973,56.6521
964463.4,344.7006,304.5322,59.87711,56.70529
964480,344.2011,304.9977,59.84103,56.74544
964500,343.6839,305.0641,59.80359,56.75115
964518,343.2482,304.9683,59.77198,56.7429
964529.1,342.6828,304.6349,59.73088,56.71416
964550.3,342.2367,304.3251,59.69837,56.6874
964563.1,341.8393,303.9934,59.66937,56.65873
964579.7,341.5436,303.6876,59.64775,56.63224
964597.8,341.19,303.6455,59.62187,56.62859
964623.7,340.8486,303.7881,59.59684,56.64094
964641.1,340.6432,303.747,59.58176,56.63739
964649.4,340.4771,303.8112,59.56955,56.64295
964665.8,340.2652,303.7997,59.55398,56.64196
964682.9,340.0766,303.7308,59.5401,56.63599
964699.3,339.8859,303.7499,59.52605,56.63763
964713.1,339.6733,303.6135,59.51038,56.62582
964731,339.4211,303.4422,59.49177,56.61096
964749.8,339.1664,303.0261,59.47295,56.57483
964770.1,338.8738,302.3874,59.45131,56.51922
964786.8,338.61,301.6218,59.43177,56.45235
964804.5,338.416,300.7689,59.4174,56.37759
964817.3,338.1095,299.5651,59.39465,56.27156
964834.1,337.6948,297.9981,59.36383,56.13266
964850.3,337.2827,296.5265,59.33315,56.00128
964867.8,336.8691,295.1986,59.3023,55.88197
964883.1,336.3709,293.6335,59.26506,55.74039
964899.3,335.9354,292.4666,59.23244,55.63416
964914.4,335.482,290.9366,59.19841,55.494
964931.5,334.9386,289.0954,59.15754,55.32401
964948.5,334.137,286.3276,59.09708,55.06567
964979.3,333.6005,284.3979,59.05649,54.88357
964993.4,333.0904,282.6457,59.01781,54.71679
965004.1,332.6927,281.2697,58.98759,54.58484
965016.6,332.1451,279.1741,58.9459,54.38223
965033.1,331.5766,276.9922,58.90251,54.16913
965049.4,331.0865,275.1288,58.86501,53.98539
965066.1,330.5571,272.8675,58.82442,53.7602
965082.3,329.971,270.4875,58.77937,53.52056
965102.6,329.4483,268.5228,58.73909,53.32067
965119.1,328.9161,266.4153,58.69798,53.10416
965133.5,328.3314,264.1851,58.65271,52.87264
965150.3,327.8161,262.0706,58.61271,52.65082
965168.5,327.3315,260.0688,58.57501,52.43873
965181.3,326.751,258.0637,58.52975,52.22422
965205,326.2203,256.2758,58.48827,52.03119
965217.3,325.7651,254.9128,58.4526,51.88291
965231.4,325.2807,253.3184,58.41457,51.70819
965247.4,324.7756,251.7023,58.37483,51.52972
965266.8,324.3023,250.1681,58.33751,51.35897
965284.1,323.7711,248.8554,58.29553,51.21188
965300.9,323.3601,247.9764,58.26299,51.11284
965319.2,322.9039,247.36,58.22678,51.04313
965333.6,322.4517,246.6079,58.19083,50.95781
965349.3,322.0208,246.0996,58.1565,50.89996
965364.4,321.5368,245.6041,58.11786,50.84343
965382.1,321.064,245.3874,58.08004,50.81866
965398.3,320.6361,245.041,58.04573,50.77903
965414.1,320.1988,244.5938,58.01061,50.72775
965432.7,319.8196,244.2989,57.9801,50.69387
965448.4,319.5139,243.9729,57.95546,50.65636
965466.3,319.224,243.7131,57.93206,50.62642
965483,318.9615,243.3818,57.91085,50.5882
965499.8,318.7684,243.0738,57.89523,50.55261
965516.3,318.601,242.6641,57.88168,50.50518
965532.8,318.4841,242.2605,57.87221,50.45836
965549.3,318.4219,241.8594,57.86717,50.41175
965565.9,318.3072,241.4384,57.85787,50.36271
965582.5,318.2566,240.9335,57.85377,50.30378
965599.6,318.1956,240.4694,57.84883,50.24948
965615.9,318.115,239.8417,57.84229,50.17583
965634.3,318.0499,239.2753,57.837,50.1092
965649.7,317.9762,238.9096,57.83102,50.06606
965666.3,317.8993,238.5864,57.82477,50.02788
965683.8,317.7359,238.2737,57.81149,49.99088
965701.1,317.5823,238.0695,57.799,49.9667
965717.4,317.2744,237.9825,57.77393,49.95637
965733.9,316.9991,237.9639,57.75149,49.95417
965750.4,316.6334,237.9028,57.72163,49.94692
965766.8,316.1132,237.8011,57.67908,49.93485
965784.6,315.5119,237.6523,57.62978,49.91719
965800.5,314.6335,237.5643,57.5575,49.90674
965818.3,313.604,237.2225,57.47243,49.86608
965834.6,311.6623,236.7412,57.31089,49.80873
965850.1,307.9701,236.4223,56.99975,49.77066
965867.9,304.1564,236.0143,56.67282,49.72185
965883.8,298.8812,235.5586,56.21106,49.66722
965901,294.2938,234.9393,55.80025,49.59278
965918,289.6076,234.3677,55.37145,49.52388
965933.7,284.2057,233.9264,54.86535,49.47055
965950.4,279.2119,233.1389,54.38591,49.37511
965967.8,274.5454,232.3611,53.92752,49.28046
965987.1,270.4361,231.6471,53.51537,49.19326
966000.8,266.5059,231.0887,53.11352,49.12484
966020.5,262.9258,230.6492,52.74081,49.07086
966036.4,259.8898,230.2592,52.41967,49.02287
966052.7,256.8849,229.8815,52.09715,48.9763
966071.9,254.397,229.6074,51.82653,48.94243
966089.3,251.8879,229.4687,51.55029,48.92529
966105.5,249.5574,229.494,51.29066,48.92842
966128.5,247.8792,229.628,51.10186,48.94499
966140.9,246.0038,229.7075,50.88904,48.95481
966155.3,244.4049,230.1176,50.70605,49.00542
966170.6,242.6426,230.4466,50.50269,49.04594
966193,240.894,230.9114,50.29916,49.10308
966206.4,239.0253,231.4012,50.07971,49.16315
966222.7,236.9499,232.2201,49.83361,49.26326
966239.1,235.1063,232.8465,49.61288,49.33957
966254.6,233.1426,233.7634,49.37555,49.45083
966273.3,231.1745,234.5419,49.13536,49.54491
966290.4,229.4747,235.1765,48.92603,49.62133
966308.3,228.0281,235.6017,48.74649,49.67239
966321.6,226.8264,235.9612,48.59636,49.71549
966338.2,225.6401,236.2382,48.44727,49.74865
966354.1,224.2942,236.6279,48.27706,49.79521
966370.8,223.2518,236.9279,48.14445,49.83099
966388.8,222.5118,237.0143,48.04988,49.84129
966404.8,221.7511,237.2614,47.95231,49.87072
966422.4,220.8776,237.501,47.83982,49.89921
966440.6,220.2605,237.7546,47.76006,49.92933
966455.8,219.5351,237.9946,47.66598,49.95781
966470.4,218.7711,238.3423,47.56653,49.99901
966488.1,218.0565,238.587,47.47315,50.02795
966503.3,217.2623,238.7512,47.36899,50.04736
966531.1,216.3048,238.8812,47.24287,50.06271
966547.4,215.6259,238.9188,47.15308,50.06715
966559.4,215.0223,238.881,47.073,50.06269
966571.3,214.4931,238.8029,47.00258,50.05347
966587.6,214.0903,238.6375,46.94886,50.03392
966605.1,213.6423,238.5315,46.88898,50.02139
966624,213.4223,238.4308,46.85953,50.00948
966640.2,213.3458,238.438,46.84928,50.01033
966656.7,213.3284,238.525,46.84695,50.02062
966679.2,213.5278,238.5798,46.87365,50.0271
966689.4,213.6753,238.5779,46.8934,50.02688
966706.4,213.9261,238.5902,46.92693,50.02833
966722.6,214.0997,238.5514,46.95012,50.02374
966740.9,214.318,238.4949,46.97924,50.01706
966757.6,214.519,238.4287,47.00603,50.00923
966771.3,214.6372,238.3113,47.02177,49.99534
966787.8,214.6646,238.2705,47.02542,49.9905
966803.9,214.7067,238.1523,47.03102,49.97651
966836.3,214.772,238.0078,47.03971,49.95938
966856.1,214.8159,237.953,47.04556,49.95288
966879.1,214.8521,238.0762,47.05037,49.96748
966897.4,214.866,238.148,47.05222,49.976
966915.1,214.8692,238.313,47.05264,49.99554
966935.6,214.9416,238.4233,47.06227,50.00859
966947.2,214.9664,238.4114,47.06556,50.00718
966957.3,214.9796,238.4458,47.06731,50.01125
966968.8,215.0395,238.4885,47.07528,50.0163
966982.8,215.1407,238.4731,47.08872,50.01448
967001.1,215.2098,238.4815,47.0979,50.01548
967013.3,215.3117,238.4162,47.11142,50.00775
967024.8,215.4649,238.4243,47.13175,50.0087
967041.8,215.6186,238.3508,47.15211,50.00001
967055.9,215.7971,238.2481,47.17576,49.98785
967071.5,216.0573,238.3282,47.21017,49.99733
967090.4,216.2566,238.2981,47.23651,49.99377
967107.8,216.46,238.343,47.26336,49.99909
967124.1,216.6791,238.4538,47.29225,50.0122
967141.4,216.8827,238.4737,47.31906,50.01456
967157.6,217.0739,238.592,47.34423,50.02855
967173,217.2821,238.5315,47.37159,50.02139
967190.1,217.4844,238.534,47.39817,50.02168
967206.4,217.637,238.5023,47.41819,50.01794
967224.4,217.7649,238.3848,47.43497,50.00403
967242.5,217.8382,238.3945,47.44456,50.00518
967259.4,217.8598,238.333,47.44739,49.99791
967279.9,217.8088,238.2636,47.44072,49.98969
967292.8,217.8463,238.2796,47.44563,49.99158
967308.9,217.8842,238.2196,47.45059,49.98447
967327.1,217.9419,238.3897,47.45815,50.00462
967340.7,217.9596,238.4221,47.46046,50.00845
967360.1,217.9999,238.6255,47.46575,50.0325
967374.8,218.0345,238.7254,47.47028,50.04431
967390,218.1278,238.9791,47.48248,50.07426
967409.4,218.2953,239.0651,47.5044,50.08441
967427.3,218.3994,239.1206,47.518,50.09096
967443.6,218.5544,239.2611,47.53825,50.10752
967458.9,218.7473,239.3136,47.56342,50.1137
967477.5,218.9157,239.1547,47.58538,50.09497
967495.9,219.069,239.223,47.60535,50.10303
967508.9,219.1235,239.2645,47.61245,50.10792
967527.3,219.1167,239.1992,47.61155,50.10023
967543.6,219.1518,239.0743,47.61612,50.0855
967559.3,219.1819,239.0361,47.62004,50.08099
967577.5,219.1942,238.8952,47.62165,50.06436
967594.2,219.2163,238.8601,47.62452,50.06021
967609.4,219.201,239.0315,47.62253,50.08045
967627.7,219.1954,239.0488,47.6218,50.08249
967645.2,219.1788,239.1228,47.61964,50.09122
967660.3,219.1195,239.0384,47.61192,50.08126
967678.8,219.0277,239.156,47.59997,50.09513
967693.3,218.963,239.1734,47.59153,50.09718
967710.7,219.019,239.4198,47.59883,50.12622
967727.8,218.9672,239.5224,47.59208,50.13829
967744.4,218.877,239.6809,47.58033,50.15694
967760.8,218.8179,239.625,47.57262,50.15036
967777.4,218.7516,239.6788,47.56398,50.15668
967794.1,218.7435,239.658,47.56292,50.15424
967811.8,218.7663,239.7197,47.56589,50.1615
967828.1,218.8676,239.7602,47.57911,50.16626
967844.6,218.9736,239.8421,47.59292,50.17588
967861.3,219.1102,240.0264,47.61071,50.19753
967880.6,219.165,240.1566,47.61785,50.21281
967897.2,219.2569,240.1543,47.6298,50.21254
967910.8,219.4386,240.2044,47.65343,50.21842
967929,219.647,240.2048,47.68051,50.21847
967944,219.9846,240.312,47.72431,50.23103
967962.8,220.3699,240.2673,47.77421,50.22579
967978.8,220.9011,240.2644,47.84285,50.22545
967993.3,221.9716,240.2655,47.98064,50.22558
968011.4,223.0251,240.1793,48.11552,50.21548
968027.1,224.4611,240.303,48.29823,50.22998
968043.6,225.8418,240.3727,48.47268,50.23814
968060.7,227.7879,240.5397,48.71655,50.25772
968079.4,229.8015,240.6002,48.96642,50.26479
968094.4,232.2375,240.7733,49.26538,50.28505
968114.3,235.5307,241.0124,49.66388,50.313
968131.6,238.0332,241.324,49.96239,50.34938
968144.4,241.1499,241.7775,50.32906,50.40221
968161.1,244.6454,242.3827,50.73367,50.47255
968178.4,247.9734,242.8711,51.11251,50.52916
968193.8,251.4335,243.5322,51.4999,50.60556
968209.4,255.3345,244.4439,51.92889,50.71053
968227.3,259.1562,245.2377,52.34136,50.80154
968243.4,263.6933,246.1898,52.82125,50.91024
968262.1,267.5339,246.9975,53.21936,51.00204
968277.9,271.4213,247.5314,53.61492,51.06254
968293.3,275.7318,247.7217,54.04502,51.08407
968310,280.4677,247.776,54.50754,51.09021
968336.9,283.766,247.7855,54.82359,51.09127
968349.6,287.3942,247.8732,55.16562,51.10119
968362.9,291.0183,247.8844,55.50152,51.10244
968379.9,294.2004,247.8178,55.7918,51.09492
968394.3,297.666,247.6962,56.10308,51.08118
968410.1,300.9875,247.6796,56.39678,51.0793
968427.2,304.3508,247.786,56.68962,51.09134
968446.4,307.3298,247.9103,56.94526,51.10537
968463.2,309.9487,247.9253,57.16714,51.10707
968478.6,312.4833,248.0911,57.37936,51.12579
968493.4,315.2965,248.1846,57.61208,51.13633
968512.1,317.8938,248.1992,57.82432,51.13799
968528.8,320.3696,248.1799,58.02434,51.1358
968548,322.9706,248.1251,58.23208,51.12962
968564,325.2555,248.0412,58.41259,51.12015
968581.7,327.4349,248.0392,58.58306,51.11992
968596.4,329.6717,248.1335,58.75631,51.13057
968611.5,332.0891,248.1467,58.94163,51.13205
968630.4,334.3114,248.2209,59.11026,51.14043
968646.8,336.4439,248.3507,59.27052,51.15506
968664.2,338.7217,248.2254,59.44005,51.14094
968680.4,340.9432,248.1181,59.60378,51.12884
968698.1,343.0854,247.9495,59.76015,51.1098
968712.9,345.6826,247.608,59.94781,51.07121
968728.9,348.3279,247.209,60.13678,51.02603
968746.8,350.9305,246.7805,60.3206,50.97742
968764.6,354.003,246.3382,60.53498,50.92713
968779.9,357.2148,245.7745,60.75609,50.86288
968795.9,361.6354,244.8458,61.05551,50.75666
968813.4,366.9665,243.8315,61.40922,50.64008
968829,372.4198,242.7769,61.76294,50.51825
968850.3,376.8354,241.8297,62.04351,50.40829
968863.3,380.8361,240.8539,62.29333,50.29447
968878.5,384.5362,239.9407,62.52074,50.18746
968895.7,387.793,239.0615,62.71807,50.08398
968911.6,390.9199,238.1445,62.90509,49.97558
968928.9,393.6307,237.4501,63.06531,49.89317
968945.3,395.7364,236.6188,63.18856,49.79412
968963.1,397.7358,235.8355,63.30463,49.70043
968980.7,399.394,234.9605,63.40019,49.59534
968998.4,400.6205,234.3726,63.47046,49.52448
969011.8,401.7436,233.54,63.5345,49.42376
969034.9,402.2994,232.966,63.56609,49.35409
969048.8,402.8043,232.4574,63.59473,49.2922
969065.6,403.0665,232.06,63.60957,49.24372
969081.5,403.4173,231.6992,63.62942,49.19963
969101.5,403.5403,231.5533,63.63637,49.18178
969118.9,403.7224,231.4795,63.64665,49.17274
969134.1,403.8045,231.5614,63.65129,49.18277
969149,403.7486,231.7345,63.64813,49.20395
969166,403.733,231.7158,63.64725,49.20166
969183.9,403.6907,231.8224,63.64486,49.21469
969203.6,403.6012,231.8664,63.6398,49.22007
969215.6,403.5646,231.9693,63.63774,49.23264
969231.3,403.4964,232.1087,63.63389,49.24967
969249.3,403.4613,232.2793,63.6319,49.27048
969266.8,403.4328,232.4654,63.63029,49.29317
969283.2,403.3843,232.6308,63.62755,49.31332
969300.7,403.27,232.847,63.62109,49.33962
969316.5,403.2094,233.0448,63.61766,49.36367
969332.2,403.1064,233.2421,63.61184,49.38763
969348.9,403.0422,233.4209,63.6082,49.40933
969366.8,402.9291,233.603,63.6018,49.43141
969383.4,402.7481,233.8776,63.59154,49.46465
969400.4,402.514,234.113,63.57827,49.49313
969415.4,402.0656,234.4899,63.55281,49.53863
969433.6,401.5415,234.7698,63.523,49.57238
969451.2,401.1521,235.0351,63.50081,49.60432
969466.8,400.6692,235.2076,63.47324,49.62506
969482.8,400.2588,235.3515,63.44977,49.64236
969500.9,399.8834,235.5108,63.42827,49.66148
969516.5,399.468,235.6305,63.40443,49.67585
969531.3,399.1053,235.716,63.38359,49.6861
969549.6,398.7744,235.6793,63.36455,49.68171
969566.3,398.3832,235.7662,63.34201,49.69212
969583.8,398.0401,235.8727,63.32221,49.70489
969599.3,397.6837,236.133,63.30162,49.73606
969619.8,397.3652,236.2494,63.28319,49.74998
969633.8,396.9631,236.4257,63.25989,49.77105
969649.3,396.6608,236.4914,63.24234,49.77891
969664.9,396.4563,236.3995,63.23046,49.76792
969683.3,396.4856,236.1855,63.23217,49.74234
969699.6,396.517,235.9258,63.23399,49.71125
969717.8,396.468,235.7642,63.23114,49.69188
969732.9,396.475,235.6664,63.23155,49.68016
969751.4,396.4261,235.6407,63.22871,49.67707
969773.4,396.2686,235.654,63.21955,49.67867
969783.7,396.0985,235.6818,63.20965,49.68201
969798.1,395.7993,235.7793,63.19223,49.6937
969815.1,395.5041,235.8688,63.17502,49.70442
969833.1,395.2622,235.9834,63.1609,49.71814
969847.6,395.0124,236.0894,63.1463,49.73084
969866.3,394.7508,236.2433,63.131,49.74925
969882.2,394.5527,236.2973,63.11941,49.75571
969902.8,394.3793,236.3886,63.10925,49.76663
969919.5,394.3247,236.3109,63.10605,49.75734
969931.2,394.2136,236.2354,63.09953,49.74831
969948.4,394.1776,236.2106,63.09742,49.74534
969965.5,394.2256,236.1107,63.10024,49.73339
969981,394.2213,235.9812,63.09998,49.71789
969998.1,394.283,236.0196,63.1036,49.72248
970018.4,394.3754,235.9648,63.10902,49.71592
970034.9,394.5404,236.0416,63.11869,49.72512
970048.9,394.609,236.123,63.1227,49.73487
970064.8,394.7314,236.3008,63.12987,49.75613
970082.7,394.7948,236.4746,63.13358,49.7769
970099.1,394.8321,236.6219,63.13576,49.79449
970121.2,394.8419,236.7542,63.13633,49.81028
970136.1,394.8094,236.8938,63.13443,49.82693
970149.3,394.7752,237.026,63.13243,49.84269
970167.6,394.7149,237.0982,63.1289,49.85128
970181.9,394.6974,237.2213,63.12788,49.86594
970201.6,394.6863,237.2238,63.12723,49.86624
970216.4,394.6778,237.1824,63.12673,49.86131
970232.1,394.7155,237.1654,63.12894,49.85929
970251.5,394.7373,237.2457,63.13021,49.86885
970268.6,394.7841,237.2897,63.13295,49.87408
970284.8,394.8804,237.3786,63.13858,49.88466
