Time Stamp(ms),Intersection,,Angle,
,x,y,x,y
2035660,319.8138,237.5477,57.97963,49.90476
2035675,319.3688,238.0449,57.94375,49.96377
2035698,319.2068,238.1735,57.93067,49.97902
2035708,318.8036,238.4813,57.89809,50.01546
2035724,318.4578,238.6723,57.87008,50.03804
2035741,318.1202,238.7381,57.84271,50.04581
2035758,317.9217,238.7337,57.82659,50.04528
2035774,317.7856,238.6452,57.81553,50.03483
2035790,317.7163,238.7756,57.80989,50.05024
2035809,317.5619,239.0827,57.79734,50.08648
2035825,317.3311,239.4515,57.77855,50.12994
2035842,316.9619,239.9398,57.74846,50.18736
2035859,316.5535,240.4194,57.71511,50.24362
2035876,316.0679,240.8864,57.67538,50.29827
2035891,315.5027,241.3157,57.62902,50.3484
2035908,314.9856,241.7662,57.58651,50.40091
2035925,314.472,242.1752,57.54419,50.44846
2035946,314.0947,242.4559,57.51303,50.48104
2035960,313.7433,242.7157,57.48396,50.51116
2035975,313.5059,242.836,57.4643,50.52509
2035993,313.2928,242.9158,57.44664,50.53433
2036009,313.1671,242.7728,57.43621,50.51778
2036026,313.0348,242.6437,57.42522,50.50282
2036044,312.9561,242.327,57.41869,50.46608
2036059,312.8503,242.0783,57.40989,50.4372
2036076,312.7553,241.8732,57.402,50.41335
2036092,312.5364,241.6688,57.38379,50.38956
2036109,312.1017,241.5542,57.34757,50.37621
2036126,311.1385,241.4497,57.26706,50.36403
2036143,309.0238,241.4561,57.08908,50.36478
2036160,306.8727,241.6095,56.90626,50.38266
2036176,304.2417,241.8176,56.6802,50.40688
2036193,300.6655,242.1452,56.3685,50.44497
2036210,297.308,242.3469,56.07115,50.46839
2036229,293.5303,242.6472,55.73102,50.50322
2036243,290.1484,242.8729,55.42141,50.52937
2036262,286.7888,243.1668,55.10896,50.56337
2036279,282.9904,243.628,54.74971,50.61662
2036294,278.9402,244.1369,54.35949,50.67524
2036312,274.9036,244.6571,53.96307,50.73501
2036327,271.0626,245.2644,53.57872,50.80459
2036343,267.2871,245.978,53.194,50.8861
2036361,263.9192,246.8885,52.84487,50.98969
2036377,260.8544,247.8316,52.52222,51.09649
2036394,257.8844,249.0037,52.20494,51.22853
2036411,255.4542,250.4801,51.94193,51.3938
2036429,253.0022,252.0713,51.67338,51.57059
2036446,251.0147,253.5231,51.45335,51.73071
2036463,249.264,254.4317,51.25776,51.83034
2036477,247.5018,255.3262,51.05919,51.92799
2036498,245.8586,256.0475,50.87248,52.00642
2036514,244.5714,256.7017,50.72517,52.07733
2036528,243.3817,257.2567,50.5882,52.13731
2036544,242.4001,257.5958,50.47457,52.17387
2036561,241.5423,257.7833,50.37482,52.19407
2036577,240.7214,257.8839,50.27898,52.20489
2036593,239.876,258.0212,50.17986,52.21966
2036610,239.1651,258.0756,50.0962,52.22551
2036628,238.5486,258.1483,50.02341,52.23333
2036643,238.041,258.2317,49.96331,52.24228
2036660,237.6518,258.3002,49.91713,52.24964
2036678,237.3841,258.4577,49.88532,52.26654
2036693,237.0934,258.6566,49.85072,52.28788
2036709,236.8978,258.8379,49.8274,52.30729
2036727,236.9451,259.0662,49.83304,52.33174
2036744,237.0105,259.3552,49.84084,52.36263
2036760,237.1824,259.694,49.86131,52.3988
2036777,237.2826,260.0465,49.87323,52.43636
2036793,237.4116,260.2327,49.88858,52.45618
2036810,237.5725,260.3415,49.90771,52.46775
2036827,237.7283,260.4161,49.92622,52.47567
2036844,237.8423,260.3654,49.93975,52.47028
2036861,237.8503,260.3015,49.9407,52.4635
2036878,237.8245,260.2646,49.93764,52.45958
2036893,237.7416,260.0623,49.9278,52.43804
2036910,237.6499,260.0127,49.91691,52.43276
2036928,237.542,259.868,49.90408,52.41735
2036945,237.3509,259.6866,49.88137,52.39801
2036962,237.335,259.3879,49.87947,52.36613
2036978,237.3471,259.067,49.88091,52.33182
2036996,237.3912,258.7892,49.88615,52.30208
2037011,237.462,258.5097,49.89457,52.27212
2037027,237.6953,258.1804,49.9223,52.23677
2037045,237.9634,257.8281,49.95411,52.19889
2037062,238.3889,257.3631,50.00452,52.14879
2037078,238.8097,256.8402,50.05426,52.09231
2037094,239.3272,256.1875,50.1153,52.02161
2037111,240.0186,255.226,50.19662,51.91707
2037128,240.6899,254.211,50.27529,51.80617
2037146,241.4571,253.1492,50.3649,51.68958
2037162,242.5287,251.5662,50.48948,51.51462
2037179,243.6671,249.8817,50.62112,51.32697
2037195,245.0042,247.8097,50.77481,51.09401
2037212,246.1498,246.0643,50.90568,50.89594
2037228,247.6056,243.6885,51.07093,50.6236
2037246,249.044,241.341,51.23306,50.35136
2037263,250.3248,239.1499,51.37647,50.09442
2037280,251.4468,236.5632,51.50137,49.78749
2037296,252.3442,233.9562,51.60078,49.47417
2037313,253.2466,231.7775,51.70029,49.2092
2037329,253.9664,230.0033,51.77937,48.99131
2037346,254.6731,228.6147,51.85672,48.81944
2037362,255.5015,227.3813,51.94708,48.66579
2037380,256.2362,226.3983,52.0269,48.54266
2037397,256.9506,225.6328,52.10424,48.44635
2037413,257.734,224.6737,52.18876,48.32517
2037430,258.5153,223.7564,52.27272,48.20873
2037447,259.1679,222.9328,52.34261,48.10373
2037462,259.8404,221.8802,52.4144,47.96891
2037480,260.5235,220.9051,52.48709,47.84337
2037500,261.3622,219.5315,52.57601,47.66551
2037515,262.0723,218.1969,52.651,47.49153
2037529,262.727,216.7474,52.71992,47.30125
2037547,263.4855,214.8115,52.7995,47.04497
2037563,264.2869,212.7618,52.88326,46.7709
2037580,265.0403,210.8026,52.96172,46.50632
2037597,266.0225,208.3134,53.06356,46.1664
2037614,266.9584,205.6297,53.16017,45.79515
2037630,268.1521,202.6037,53.28276,45.37054
2037648,269.2577,199.8209,53.39567,44.97433
2037665,270.3457,197.0142,53.50621,44.5691
2037681,271.5081,194.2254,53.62366,44.16079
2037698,272.4758,191.8243,53.72095,43.80465
2037713,273.5444,189.4189,53.82787,43.44357
2037731,274.5364,187.4395,53.92663,43.14317
2037748,275.4402,185.8934,54.0162,42.90645
2037764,276.5203,184.528,54.12276,42.69588
2037782,277.4816,183.3926,54.21712,42.51967
2037798,278.1598,182.6941,54.28344,42.41079
2037814,278.9748,182.0677,54.36285,42.3128
2037832,279.7007,181.7124,54.43333,42.25709
2037851,280.0875,181.6661,54.47079,42.24983
2037864,280.5639,181.6356,54.51682,42.24504
2037881,280.9212,181.5925,54.55129,42.23827
2037897,281.2254,181.6047,54.58057,42.24018
2037913,281.4124,181.347,54.59856,42.1997
2037931,281.5728,181.0188,54.61398,42.14805
2037947,281.5494,180.4336,54.61173,42.05577
2037964,281.5237,179.8013,54.60926,41.95574
2037982,281.3399,179.0928,54.59159,41.8433
2037998,281.1918,178.4689,54.57734,41.74396
2038015,281.0428,177.8145,54.563,41.63941
2038031,280.859,177.2405,54.54529,41.54744
2038049,280.787,176.8891,54.53835,41.49101
2038064,280.7223,176.5378,54.53211,41.4345
2038082,280.7641,176.2996,54.53614,41.39611
2038101,280.8622,176.2688,54.5456,41.39115
2038114,281.0042,176.3603,54.55928,41.4059
2038133,281.1532,176.4002,54.57363,41.41232
2038148,281.3633,176.4196,54.59384,41.41545
2038165,281.631,176.5219,54.61957,41.43193
2038183,281.9159,176.4375,54.64691,41.41833
2038199,282.2342,176.3123,54.67742,41.39816
2038215,282.8252,176.2581,54.73394,41.38942
2038234,283.4683,176.1383,54.79527,41.37009
2038249,284.2614,176.0089,54.87063,41.34921
2038266,284.9622,175.833,54.937,41.3208
2038281,285.714,175.8359,55.00795,41.32127
2038299,286.255,175.8896,55.05885,41.32994
2038315,286.812,176.0497,55.11113,41.35581
2038333,287.2195,176.2479,55.14929,41.38778
2038348,287.5536,176.5026,55.18052,41.42882
2038366,287.8903,176.6844,55.21194,41.45809
2038381,288.2559,176.7544,55.246,41.46936
2038399,288.6838,176.7682,55.2858,41.47158
2038414,289.4379,176.6418,55.35574,41.45123
2038431,290.9579,176.3598,55.49597,41.40582
2038449,293.1545,176.0105,55.69686,41.34947
2038466,298.1031,175.3884,56.14199,41.24888
2038483,303.3476,175.2228,56.60275,41.22205
2038498,309.8854,174.7209,57.16181,41.14061
2038518,314.8351,174.126,57.57411,41.04381
2038534,319.2715,173.5543,57.9359,40.95051
2038548,323.676,172.9798,58.28801,40.85649
2038567,327.5883,172.671,58.595,40.80585
2038581,331.2569,172.5077,58.87806,40.77903
2038599,334.144,172.5689,59.09761,40.78909
2038616,336.7651,172.7965,59.29453,40.82645
2038633,339.3109,172.776,59.48363,40.82308
2038648,341.5133,172.9102,59.64553,40.84509
2038665,343.7104,172.8483,59.80551,40.83494
2038681,345.9778,172.7471,59.96901,40.81834
2038698,348.1539,172.646,60.12442,40.80175
2038714,350.4092,172.4877,60.28395,40.77575
2038733,352.1992,172.3169,60.40947,40.74768
2038748,354.0731,172.1944,60.53984,40.72753
2038765,355.9231,172.0341,60.66754,40.70114
2038782,357.7743,171.8648,60.7943,40.67326
2038799,359.3519,171.6153,60.90155,40.63211
2038815,361.0782,171.3081,61.01808,40.5814
2038834,362.5637,171.0803,61.11768,40.54372
2038849,363.9665,170.7305,61.21115,40.48581
2038866,365.2143,170.4671,61.29384,40.44213
2038883,366.5233,170.2271,61.38012,40.40229
2038899,367.3608,170.0686,61.43507,40.37595
2038915,368.4418,169.9298,61.50571,40.35285
2038933,369.4095,169.7587,61.56868,40.32438
2038948,370.5116,169.5504,61.64008,40.28968
2038966,371.5888,169.2661,61.70956,40.24225
2038983,372.6747,168.9954,61.77928,40.19704
2039000,373.8432,168.5468,61.85395,40.12198
2039017,375.0255,168.2329,61.92913,40.06936
2039033,376.2078,167.8256,62.00395,40.00095
2039050,377.4046,167.3631,62.0793,39.92312
2039066,378.5065,167.0058,62.14836,39.86287
2039083,379.544,167.0385,62.21309,39.86837
2039100,380.4111,166.999,62.26699,39.86171
2039116,381.2046,167.1108,62.31613,39.88058
2039132,381.8254,167.3461,62.35447,39.92026
2039149,382.3438,167.4405,62.38641,39.93615
2039165,382.8223,167.671,62.41583,39.97495
2039183,383.1864,167.8225,62.43818,40.00044
2039200,383.4387,168.0463,62.45364,40.03803
2039217,383.5921,168.2119,62.46304,40.06583
2039233,383.789,168.3696,62.47509,40.09229
2039250,383.822,168.4723,62.47711,40.10949
2039267,383.7211,168.4866,62.47094,40.11189
2039283,383.6291,168.4854,62.46531,40.11169
2039301,383.5105,168.5357,62.45805,40.12012
2039317,383.3666,168.553,62.44923,40.12302
2039333,383.3072,168.5758,62.44559,40.12683
2039350,383.2776,168.5863,62.44377,40.12859
2039367,383.1622,168.6783,62.4367,40.14399
2039383,383.075,168.8923,62.43135,40.1798
2039401,383.0724,169.0324,62.43119,40.20322
2039418,383.0499,169.2116,62.42981,40.23316
2039433,383.0807,169.3549,62.43169,40.25708
2039450,383.1058,169.5,62.43324,40.28128
2039467,383.1315,169.6974,62.43481,40.31417
2039484,383.205,169.9056,62.43932,40.34883
2039501,383.2921,170.1882,62.44466,40.39582
2039518,383.4326,170.3217,62.45327,40.418
2039534,383.6748,170.3922,62.46811,40.4297
2039550,383.9078,170.5126,62.48236,40.44968
2039569,384.0801,170.7115,62.49289,40.48265
2039584,384.2784,170.8248,62.505,40.50144
2039601,384.4418,170.968,62.51498,40.52515
2039617,384.5571,171.1275,62.52201,40.55154
2039634,384.6494,171.3332,62.52764,40.58554
2039650,384.6952,171.5587,62.53043,40.62278
2039667,384.7473,171.7161,62.53361,40.64874
2039685,384.7613,171.8617,62.53447,40.67275
2039700,384.7128,172.1087,62.53151,40.71342
2039717,384.639,172.3631,62.52701,40.75527
2039735,384.5969,172.6042,62.52444,40.79489
2039751,384.5544,172.6629,62.52185,40.80452
2039768,384.494,172.7058,62.51817,40.81156
2039785,384.4879,172.8454,62.5178,40.83446
2039801,384.4747,172.9177,62.51699,40.84632
2039818,384.426,172.984,62.51402,40.85718
2039835,384.3559,173.1497,62.50974,40.88433
2039851,384.3572,173.292,62.50982,40.90762
2039868,384.3604,173.6451,62.51001,40.96535
2039889,384.341,173.8266,62.50883,40.99498
2039902,384.3339,174.0634,62.50839,41.0336
2039919,384.2096,174.3133,62.5008,41.07432
2039937,384.088,174.5951,62.49338,41.12016
2039952,383.8805,174.8389,62.48069,41.15978
2039970,383.6523,175.1486,62.46673,41.21003
2039987,383.4139,175.3912,62.45213,41.24933
2040002,383.055,175.6194,62.43011,41.28628
2040019,382.7291,175.7749,62.41011,41.31141
2040036,382.3866,175.9257,62.38905,41.33578
2040054,381.9454,176.0989,62.36187,41.36374
2040070,381.6062,176.0836,62.34094,41.36127
2040086,381.22,176.1233,62.31709,41.36768
2040103,380.907,176.2197,62.29771,41.38322
2040120,380.6476,176.2279,62.28165,41.38455
2040137,380.324,176.3386,62.26158,41.4024
2040152,379.9218,176.3918,62.2366,41.41097
2040170,379.4935,176.5847,62.20995,41.44204
2040187,378.9098,176.8471,62.17356,41.48425
2040204,378.2795,177.1472,62.13416,41.53247
2040219,377.475,177.5401,62.08373,41.59549
2040237,376.3396,178.067,62.01226,41.67979
2040254,375.1772,178.5114,61.93875,41.75073
2040269,373.883,178.8371,61.85649,41.80262
2040287,372.1727,179.2606,61.74709,41.86997
2040303,370.2458,179.7711,61.6229,41.95097
2040321,368.397,180.343,61.50279,42.04146
2040338,366.8503,180.9445,61.4016,42.13635
2040352,364.4193,181.9201,61.24121,42.28967
2040370,362.14,182.9272,61.08933,42.44717
2040387,358.9442,184.3102,60.8739,42.66215
2040406,356.4693,185.3528,60.70504,42.82324
2040420,353.3348,186.4306,60.4886,42.9889
2040437,350.3495,187.5316,60.27974,43.1572
2040454,346.3153,188.8771,59.99321,43.36163
2040473,341.8935,190.4016,59.67333,43.59161
2040491,338.4252,191.5261,59.41808,43.76013
2040507,333.4432,192.8334,59.04457,43.95485
2040521,329.2368,193.7596,58.72276,44.09204
2040538,325.1027,194.7405,58.40057,44.23664
2040551,319.8894,195.9772,57.98571,44.41795
2040570,315.1697,196.8502,57.60166,44.54525
2040586,310.2004,197.9972,57.18832,44.71168
2040603,305.8318,199.1142,56.81715,44.87284
2040619,301.3983,200.7157,56.43279,45.10233
2040638,296.7609,202.474,56.02227,45.3522
2040652,292.2822,203.9616,55.61732,45.56187
2040669,288.2907,204.8858,55.24925,45.69136
2040684,284.5938,205.6445,54.90214,45.79721
2040702,280.5854,206.5913,54.5189,45.92875
2040719,276.8761,207.4307,54.15773,46.04484
2040735,273.1396,208.5535,53.78743,46.19937
2040753,269.7621,209.4554,53.44699,46.32288
2040769,266.8754,210.1734,53.15162,46.4208
2040786,263.7459,210.6824,52.82676,46.49001
2040802,260.2328,211.1277,52.45618,46.55041
2040820,257.1717,211.5812,52.12813,46.61178
2040837,254.1211,212.1557,51.79633,46.68933
2040854,251.2263,212.7945,51.47688,46.77531
2040871,248.2786,213.4958,51.14693,46.86938
2040888,245.356,214.0749,50.81508,46.9468
2040904,242.5013,214.6416,50.4863,47.02235
2040921,239.4612,215.3985,50.13108,47.12294
2040943,236.9457,216.0495,49.83311,47.20915
2040954,234.3382,216.8064,49.52032,47.30902
2040969,231.4284,217.8118,49.16648,47.44111
2040986,228.7071,218.619,48.83093,47.54668
2041004,226.2287,219.4097,48.52136,47.64967
2041019,223.7198,220.2325,48.20407,47.75643
2041037,221.1697,221.1741,47.87749,47.87806
2041053,218.4664,222.1491,47.52675,48.00342
2041070,216.0063,223.4268,47.20343,48.16675
2041087,213.6895,224.6659,46.8953,48.32418
2041103,211.3594,226.3661,46.58179,48.53862
2041120,209.5501,228.3996,46.33581,48.79272
2041138,207.7745,230.637,46.09225,49.06936
2041154,206.1801,233.6651,45.87169,49.43893
2041171,204.6722,236.7132,45.66148,49.80539
2041188,203.3855,239.5898,45.48085,50.14622
2041204,202.2953,242.6216,45.3269,50.50025
2041221,201.2126,245.246,45.17316,50.80249
2041237,200.3342,247.6265,45.04782,51.0733
2041254,199.6438,250.3018,44.94893,51.37391
2041270,199.2289,252.7985,44.88933,51.65093
2041289,198.8405,255.1148,44.83342,51.90495
2041308,198.6022,257.0118,44.79907,52.11087
2041324,198.4326,259.2622,44.7746,52.35269
2041340,198.3136,261.4153,44.75742,52.58162
2041357,198.366,263.6715,44.76498,52.81897
2041372,198.6945,266.135,44.81239,53.0752
2041389,199.0125,268.3203,44.85821,53.29997
2041408,199.5788,270.3339,44.93961,53.50501
2041425,199.9636,272.2296,44.99479,53.69625
2041442,200.5438,273.7784,45.07779,53.8512
2041459,200.9876,275.3079,45.14111,54.00312
2041474,201.905,277.2152,45.27157,54.19102
2041493,202.8775,278.8762,45.40921,54.35327
2041518,204.0345,281.3314,45.57212,54.59077
2041535,204.9566,283.5086,45.70125,54.7991
2041549,205.532,285.0349,45.78155,54.94387
2041558,206.3752,287.2384,45.89877,55.15105
2041574,207.4715,290.1397,46.05047,55.42061
2041593,208.4039,292.2746,46.17883,55.61663
2041608,209.3854,294.264,46.31331,55.79755
2041624,210.4408,296.1617,46.45718,55.96857
2041647,211.1026,297.0728,46.547,56.05016
2041658,212.0009,298.0945,46.66845,56.14122
2041675,213.1432,298.9443,46.82212,56.21665
2041692,214.118,299.4182,46.95256,56.25858
2041707,215.2973,299.5248,47.10952,56.268
2041725,216.6219,299.7678,47.28471,56.28946
2041743,217.8124,299.7217,47.44118,56.28539
2041758,219.1128,299.7003,47.61105,56.2835
2041774,220.5969,299.6032,47.80357,56.27493
2041792,221.8216,299.6486,47.96137,56.27893
2041808,223.3001,299.6386,48.15061,56.27805
2041826,224.5536,299.5474,48.30995,56.26999
2041843,225.8765,299.6535,48.47705,56.27937
2041860,227.2342,299.6454,48.64741,56.27865
2041875,228.6701,299.751,48.82633,56.28798
2041893,230.2379,299.7122,49.02024,56.28454
2041908,231.6005,299.6231,49.18756,56.27668
2041924,233.205,299.3979,49.38313,56.25679
2041942,234.5748,299.2845,49.54887,56.24676
2041957,236.0674,299.0478,49.72821,56.22581
2041974,237.6845,298.7164,49.92102,56.19645
2041991,239.101,298.3909,50.08864,56.16756
2042008,240.4529,298.1316,50.24755,56.14452
2042026,241.8839,297.6775,50.41459,56.1041
2042044,243.0931,297.3103,50.55485,56.07136
2042060,244.2416,296.9656,50.68728,56.04057
2042077,245.3387,296.5743,50.8131,56.00556
2042093,246.3344,296.348,50.92669,55.98528
2042107,247.3694,296.1027,51.0442,55.96328
2042124,248.2708,295.8506,51.14605,55.94064
2042141,249.112,295.6113,51.2407,55.91913
2042160,249.9319,295.3152,51.33258,55.89248
2042176,250.7667,295.0333,51.42575,55.86707
2042193,251.5548,294.8083,51.51336,55.84676
2042209,252.2117,294.6823,51.58613,55.83537
2042226,252.9715,294.5064,51.67,55.81948
2042244,253.5737,294.4816,51.73626,55.81724
2042260,254.261,294.437,51.81165,55.81321
2042276,254.99,294.4108,51.89133,55.81083
2042291,255.7159,294.668,51.9704,55.83409
2042309,256.4032,294.9465,52.045,55.85924
2042326,257.087,295.1192,52.11899,55.87481
2042343,257.8303,295.1432,52.19913,55.87697
2042361,258.4336,295.1623,52.26395,55.8787
2042377,258.9883,295.0941,52.32339,55.87255
2042393,259.5337,295.0353,52.38169,55.86725
2042409,260.1107,295.0244,52.44319,55.86626
2042425,260.5573,294.8899,52.49068,55.85413
2042445,260.9788,294.8493,52.5354,55.85046
2042461,261.2545,294.7933,52.56461,55.8454
2042478,261.4478,294.7498,52.58505,55.84148
2042495,261.6627,294.6654,52.60777,55.83385
2042512,261.7924,294.5285,52.62147,55.82148
2042527,261.9341,294.4081,52.63643,55.81059
2042542,262.0363,294.3886,52.6472,55.80883
2042560,262.1138,294.3849,52.65538,55.80849
2042583,262.2802,294.423,52.67292,55.81194
2042604,262.3679,294.442,52.68215,55.81366
2042615,262.5211,294.4702,52.69827,55.8162
2042631,262.6415,294.4531,52.71094,55.81466
2042645,262.7763,294.4551,52.72511,55.81485
2042661,262.9417,294.2924,52.74248,55.80012
2042678,263.1102,294.1592,52.76016,55.78806
2042697,263.306,294.1398,52.78069,55.78631
2042710,263.5093,294.0947,52.80199,55.78222
2042728,263.7352,293.9782,52.82563,55.77166
2042745,263.9898,293.8627,52.85225,55.76119
2042762,263.5381,294.0577,52.80501,55.77887
2042777,263.5961,294.1168,52.81108,55.78422
2042796,263.6778,294.2729,52.81963,55.79836
2042810,263.8082,294.3765,52.83327,55.80774
2042827,263.9267,294.5009,52.84565,55.81898
2042842,264.0641,294.6076,52.86001,55.82863
2042860,264.2121,294.6309,52.87545,55.83073
2042877,264.3959,294.7334,52.89463,55.83999
2042894,264.5422,294.7181,52.90988,55.83862
2042914,264.7329,294.7114,52.92974,55.83801
2042927,264.9044,294.7154,52.94759,55.83837
2042945,265.1219,294.5858,52.97019,55.82665
2042963,265.277,294.4392,52.9863,55.8134
2042977,265.4232,294.2804,53.00147,55.79903
2042996,265.4908,294.1759,53.00849,55.78957
2043014,265.5582,294.1293,53.01548,55.78535
2043026,265.5988,293.946,53.01968,55.76874
2043044,265.682,293.8928,53.02832,55.76392
2043061,265.7324,293.8293,53.03353,55.75816
2043077,265.7864,293.8699,53.03913,55.76184
2043093,265.8195,293.8463,53.04255,55.7597
2043109,265.863,293.9153,53.04706,55.76596
2043127,265.911,293.8594,53.05203,55.76089
2043144,265.9613,293.9531,53.05724,55.76939
2043162,265.9581,293.8997,53.0569,55.76455
2043180,266.0002,293.8391,53.06125,55.75905
2043205,265.9694,293.8504,53.05807,55.76007
2043214,265.9551,293.8013,53.05659,55.75562
2043228,265.9832,293.8565,53.0595,55.76063
2043246,265.993,293.7989,53.06051,55.7554
2043261,265.9527,293.7156,53.05634,55.74785
2043278,265.9468,293.542,53.05573,55.73208
2043293,265.9628,293.3902,53.05738,55.71829
