Time Stamp(ms),Intersection,,Angle,
,x,y,x,y
658498.4,310.2672,242.0954,57.19394,50.43919
658509.1,310.3991,242.0009,57.20503,50.4282
658526.7,310.5251,241.9955,57.21562,50.42757
658547.6,310.5958,242.0206,57.22155,50.43049
658560.3,310.809,241.9346,57.23945,50.42049
658576.9,311.0485,241.8416,57.25953,50.40967
658593.4,311.3144,241.7226,57.2818,50.39583
658609.4,311.6259,241.5972,57.30785,50.38122
658626.6,311.9958,241.5165,57.33874,50.37182
658642.6,312.3226,241.4965,57.36598,50.36948
658658.8,312.5297,241.5683,57.38322,50.37785
658676.7,312.6239,241.7237,57.39107,50.39595
658696.1,312.6233,241.9015,57.39102,50.41665
658709,312.4663,242.1375,57.37795,50.44408
658725.6,312.3325,242.3159,57.36681,50.46479
658744.9,312.0386,242.4494,57.34231,50.48029
658760,311.7522,242.5264,57.3184,50.48921
658778,311.4409,242.6108,57.29239,50.499
658791.6,311.1023,242.7111,57.26404,50.51063
658810.8,310.7871,242.8756,57.23761,50.52967
658824.2,310.4868,243.1879,57.21239,50.56581
658840.9,310.0613,243.6361,57.17662,50.61755
658858.4,309.6228,243.958,57.13968,50.65464
658874.9,309.1041,244.1577,57.09587,50.67762
658892,308.6846,244.1378,57.06037,50.67535
658909.7,308.3598,243.9628,57.03284,50.6552
658926.4,308.146,243.4398,57.01469,50.5949
658942.6,308.082,242.9677,57.00926,50.54033
658961.1,308.31,242.4214,57.02862,50.47704
658981.3,308.4288,242.1209,57.0387,50.44215
658997.5,308.5398,241.889,57.0481,50.41519
659011.2,308.6189,241.7491,57.05481,50.39891
659028.6,308.778,241.5699,57.06828,50.37804
659042.8,308.9888,241.176,57.08612,50.33211
659062,309.1319,240.871,57.09822,50.29647
659075.6,309.231,240.51,57.1066,50.25424
659091.6,309.1811,240.3188,57.10238,50.23183
659109.6,309.0861,240.2784,57.09435,50.2271
659126.7,308.959,240.2924,57.0836,50.22873
659142.4,308.9329,240.225,57.08139,50.22083
659160.3,308.8334,239.9971,57.07297,50.19409
659176.4,308.6883,239.8726,57.06068,50.17947
659192.7,308.3224,240.0725,57.02967,50.20295
659209,308.0056,240.2979,57.00277,50.22938
659226.3,307.7665,240.5789,56.98244,50.26229
659242.9,307.6041,240.7936,56.96862,50.28742
659259,307.4244,240.9836,56.95332,50.30964
659279,307.0446,241.2973,56.92094,50.34626
659294.3,306.598,241.6274,56.88279,50.38474
659310.4,305.9927,241.8754,56.83096,50.4136
659326.6,305.3176,242.1682,56.77297,50.44764
659345.4,304.5686,242.5251,56.70844,50.48907
659360.3,303.55,243.078,56.62031,50.5531
659376.8,302.4399,243.6998,56.5238,50.62489
659392.8,301.0714,244.5572,56.40414,50.72355
659409.5,299.024,245.743,56.22371,50.85929
659426.8,296.6354,247.0008,56.01104,51.00243
659443.6,292.8429,249.0594,55.66848,51.23479
659460.6,289.1106,251.2585,55.32541,51.48045
659477.4,284.8533,254.0262,54.9267,51.78592
659493.5,278.5726,258.0162,54.32371,52.21912
659511.9,272.6393,261.6584,53.73735,52.60732
659528.8,265.0282,265.7522,52.96045,53.03558
659545.2,258.0973,268.8981,52.22784,53.359
659560.6,251.0106,271.4886,51.4529,53.6217
659577.4,243.61,273.3437,50.61454,53.80782
659593.3,236.7385,275.0692,49.80841,53.97949
659610.1,229.5914,276.5961,48.94046,54.13021
659628.8,224.0615,277.6572,48.24751,54.23431
659644.8,218.3995,278.7578,47.51801,54.34174
659660.3,211.8516,280.1224,46.64832,54.47417
659678.9,206.6898,281.4337,45.9424,54.60061
659694.1,201.1103,282.9012,45.1586,54.74119
659710.8,195.6958,284.4545,44.37679,54.88894
659728.8,191.0127,285.9116,43.68331,55.02656
659745.3,186.3867,287.6065,42.98217,55.18546
659761.9,180.5856,289.6071,42.07977,55.3714
659782.6,176.582,291.125,41.4416,55.51132
659798,172.8724,292.4679,40.83889,55.63428
659813.8,168.6015,294.1119,40.13114,55.78378
659831.6,164.9388,295.7125,39.51219,55.92823
659846.4,161.0866,297.228,38.84912,56.06401
659863.4,157.233,298.7029,38.17319,56.19525
659883.3,152.5934,300.2946,37.34243,56.33588
659897.4,148.1373,302.0528,36.52684,56.49003
659913.9,143.3801,304.0956,35.63675,56.66757
659931.3,139.1077,305.9887,34.8201,56.83061
659947.5,135.0764,307.7355,34.03439,56.9798
659966.1,131.3946,309.2831,33.30383,57.111
659983.3,128.0438,310.4146,32.62814,57.20633
659996.1,124.9885,311.3024,32.00301,57.28079
660011.9,122.4147,311.7719,31.46969,57.32004
660029,120.0691,312.194,30.97831,57.35526
660045.6,117.7538,312.7437,30.48826,57.40104
660062.9,115.7718,313.2897,30.06479,57.44638
660084.6,114.6397,313.6664,29.82127,57.47759
660099.8,113.7258,313.8937,29.62382,57.49641
660112.6,113.0963,313.9509,29.48737,57.50114
660131.6,112.7898,313.6976,29.42079,57.48018
660149.2,112.485,313.5511,29.35449,57.46805
660163.4,112.241,313.3163,29.30135,57.44858
660179.9,112.623,312.882,29.38451,57.41253
660198.8,112.8563,312.6047,29.43523,57.38947
660216.6,113.3489,312.2208,29.54216,57.3575
660233.9,113.7712,311.9327,29.63363,57.33347
660250.2,114.0856,311.6068,29.70164,57.30625
660266.1,114.6226,310.976,29.81759,57.25345
660281.2,115.1691,310.2634,29.93529,57.19362
660298.4,115.6008,309.6759,30.02808,57.14415
660315,116.0747,308.9343,30.12973,57.08151
660333.9,116.4029,308.4806,30.20002,57.04308
660351.4,116.6584,307.9942,30.25467,57.0018
660368.7,116.9361,307.6934,30.314,56.97623
660381.4,117.34,307.0886,30.40015,56.92469
660398.4,118.1103,306.1889,30.56403,56.84777
660414.4,118.8359,305.3539,30.71792,56.7761
660431.6,119.572,304.3748,30.87352,56.6917
660448.4,120.3467,303.0992,31.03674,56.58117
660466.5,121.032,301.7854,31.18065,56.46667
660483,121.9864,300.176,31.38034,56.32544
660500,122.6964,298.8021,31.52836,56.20405
660517.1,123.6872,296.6727,31.73413,56.01437
660534.9,125.0322,294.2109,32.01202,55.79274
660553.4,126.3152,291.8794,32.27553,55.58049
660565.8,128.153,288.906,32.65032,55.30643
660582.9,130.0657,286.1916,33.03709,55.0529
660600.6,132.1155,283.6438,33.44785,54.81197
660616.6,134.7292,280.9216,33.96602,54.55132
660634.3,137.5854,277.8619,34.52514,54.25434
660650.2,140.6848,274.6468,35.12348,53.93759
660666.9,144.3692,270.9764,35.82348,53.57002
660687.8,147.9995,267.6506,36.50135,53.23134
660703.4,151.2808,264.3463,37.10401,52.88945
660720.6,154.1826,261.2936,37.6291,52.56874
660737.3,157.0075,258.1022,38.13324,52.22836
660752.5,160.8734,253.4781,38.81205,51.72576
660766.4,164.4911,248.8637,39.43578,51.21281
660785.6,167.3845,243.9853,39.92673,50.65779
660804.6,169.25,240.6674,40.23957,50.27266
660817.8,171.0628,237.4345,40.54083,49.89131
660834.9,172.5,234.5881,40.77778,49.55048
660851.1,173.915,231.6444,41.00941,49.19293
660868.1,175.0327,228.8896,41.19124,48.85357
660887.6,175.7856,226.4451,41.31314,48.54853
660900.7,176.3963,224.4524,41.41169,48.29713
660917.1,176.6547,222.4794,41.45332,48.04573
660938.8,176.9046,220.3773,41.4935,47.77518
660951.7,177.006,218.289,41.50978,47.50357
660969.9,177.0853,216.5074,41.52253,47.26962
660984.8,177.0317,214.6407,41.51392,47.02224
661001.6,176.5689,212.9036,41.4395,46.78996
661019.5,176.1895,211.6997,41.37836,46.62779
661033.4,175.8908,210.4655,41.33015,46.46053
661050.6,175.7151,209.7008,41.30175,46.35638
661067,175.738,208.7294,41.30545,46.22351
661084.9,175.9551,207.8432,41.34052,46.10172
661102.1,176.1303,207.023,41.36881,45.98852
661118.3,176.3119,206.3879,41.3981,45.90054
661137,176.7622,205.7882,41.47061,45.81721
661150.8,177.1557,205.0334,41.53384,45.71199
661168.1,177.5357,204.2812,41.59478,45.60672
661184.3,177.8356,203.7173,41.64279,45.52754
661201.9,178.1113,203.4117,41.68686,45.48455
661217.6,178.3992,203.2707,41.73284,45.46468
661233.8,178.4607,203.0854,41.74265,45.43857
661252.6,178.2562,203.1924,41.71001,45.45365
661269.5,178.1449,203.1644,41.69224,45.4497
661286.1,178.1684,203.1862,41.69598,45.45278
661302,178.3389,203.2637,41.72321,45.4637
661320.8,178.4991,203.2169,41.74877,45.4571
661337.9,178.6777,203.1692,41.77724,45.45038
661355.6,178.9485,203.1149,41.82035,45.44271
661370.1,179.4553,203.0316,41.90089,45.43097
661387.5,179.958,203.0257,41.98056,45.43014
661404.5,180.5116,203.0237,42.06808,45.42986
661422.4,180.7982,202.9682,42.11329,45.42202
661436.9,181.0759,202.9292,42.15705,45.41652
661455.8,181.4813,202.9391,42.22081,45.41792
661477.8,181.8747,203.0361,42.28255,45.43161
661488.8,182.1986,203.0541,42.33331,45.43414
661503.9,182.4445,203.1027,42.37178,45.441
661521.5,182.6087,203.2994,42.39744,45.46872
661539.8,182.9301,203.4338,42.44761,45.48766
661557.2,183.3132,203.5796,42.50731,45.50818
661573.5,183.455,203.6703,42.52938,45.52094
661586,183.4965,203.6499,42.53583,45.51807
661606.3,183.8098,203.7352,42.58453,45.53006
661623,184.3646,203.8523,42.67058,45.54652
661640,185.0971,203.8398,42.78381,45.54476
661655.8,186.0153,203.885,42.92517,45.55111
661671.2,186.9982,203.9406,43.07578,45.55892
661689.4,187.8093,203.9879,43.19952,45.56557
661705.6,189.1035,204.0477,43.39591,45.57396
661724.3,190.9575,204.0459,43.67504,45.57371
661745.5,192.4787,204.0264,43.90214,45.57098
661759.4,194.1084,204.116,44.14354,45.58355
661770.8,196.2711,204.2605,44.46086,45.60381
661789.4,199.4294,204.4779,44.91816,45.63429
661808.1,202.7879,204.7582,45.39657,45.67352
661824.8,207.5518,205.0893,46.06155,45.7198
661841.6,212.1366,205.3376,46.68675,45.75445
661858.1,217.0923,205.7223,47.34665,45.80804
661874.6,223.2543,206.474,48.14477,45.91249
661889.2,229.2636,207.142,48.89991,46.00497
661908.3,235.2211,207.7277,49.62669,46.08581
661924.6,241.5025,208.248,50.37019,46.15741
661941.2,247.1683,208.7083,51.02142,46.22062
661957.6,253.3784,209.1174,51.71479,46.27666
661974.4,259.7854,209.4225,52.40854,46.31839
661990.3,265.9829,209.8231,53.05947,46.37307
662006.3,271.7633,210.1809,53.64937,46.42181
662022.4,277.6848,210.5258,54.23702,46.46873
662042.3,283.1511,210.9489,54.76504,46.52617
662059.3,288.0012,211.0411,55.22228,46.53867
662073.1,293.1288,211.013,55.69452,46.53486
662089.9,297.5809,210.8159,56.0955,46.50813
662105.8,301.8561,210.6403,56.47284,46.48429
662123.1,305.6019,210.55,56.79741,46.47202
662140.2,308.8993,210.587,57.07855,46.47705
662156,311.945,210.7062,57.3345,46.49324
662171.3,315.1407,210.8969,57.59927,46.51911
662188.8,318.1904,211.0271,57.8484,46.53677
662206,320.5327,211.1715,58.03744,46.55634
662221.9,323.2357,211.2863,58.25311,46.57188
662238.6,325.164,211.3931,58.4054,46.58634
662254.4,327.0438,211.5602,58.55259,46.60894
662271.4,328.6013,211.7146,58.67363,46.62981
662288.7,330.3021,211.7982,58.80483,46.6411
662305.2,331.3933,211.8211,58.88849,46.6442
662320.9,332.5598,211.8377,58.97749,46.64643
662339.3,333.6853,211.8241,59.06291,46.6446
662354.6,335.0066,211.8599,59.16267,46.64943
662386.1,336.7029,212.0193,59.28988,46.67094
662396.3,337.5503,211.9587,59.35308,46.66276
662406.1,339.0404,211.8977,59.46363,46.65453
662424.8,340.3609,212.3475,59.56102,46.71518
662439.8,341.8036,212.8633,59.66676,46.78455
662460.6,343.9109,214.0693,59.82003,46.94606
662482.1,346.058,215.4443,59.97476,47.12902
662496.1,347.6259,216.257,60.08685,47.23656
662505.8,349.6665,217.5378,60.23158,47.40517
662534.4,351.6472,219.4223,60.37086,47.65131
662553.3,352.8657,221.0616,60.45596,47.86357
662565.9,353.56,222.6163,60.50425,48.06326
662581.4,353.9601,223.546,60.53201,48.18194
662590,354.2795,225.1078,60.55414,48.38008
662606.8,354.7902,227.0643,60.58946,48.62616
662627.1,355.399,228.8285,60.63146,48.84599
662643.3,356.0256,230.889,60.67458,49.10033
662659.4,357.3277,233.519,60.76381,49.42122
662677.1,358.4686,235.4954,60.84159,49.65963
662688.6,360.0869,237.681,60.95127,49.92059
662705.7,361.5586,239.2001,61.05036,50.10033
662722.6,363.4006,239.126,61.17352,50.0916
662740.5,365.6445,237.8201,61.32225,49.93711
662756.3,368.5104,236.7123,61.51019,49.80529
662772.6,371.2595,236.4223,61.68835,49.77065
662789.8,374.8259,235.7181,61.91646,49.68636
662806.3,378.369,233.7518,62.13977,49.44942
662823.9,381.8793,232.3556,62.35779,49.27979
662842.3,385.6094,230.5026,62.58606,49.05283
662863.1,388.5015,228.5334,62.76066,48.80935
662877,391.3289,226.9411,62.92937,48.61072
662890.6,394.4348,225.299,63.1125,48.40424
662907.9,396.6458,224.8087,63.24147,48.34225
662924.1,399.0969,224.3109,63.38311,48.27918
662939.3,401.4477,224.5778,63.51765,48.31302
662956.4,404.3167,224.6944,63.68016,48.32778
662973.6,407.4054,224.8293,63.85305,48.34487
662991.9,410.6342,225.0014,64.03153,48.36663
663007,413.8294,225.2354,64.20595,48.39621
663023.6,417.804,225.8678,64.41987,48.47596
663045.6,420.1768,226.3885,64.54601,48.54143
663060.8,422.8894,227.4404,64.6888,48.67317
663072.9,425.5455,228.0768,64.82718,48.75256
663089.4,428.3802,228.3353,64.9733,48.78473
663107.9,430.9318,228.3742,65.10349,48.78957
663124.1,433.6346,227.9784,65.24001,48.7403
663144.8,435.8,227.6553,65.34837,48.70001
663159.1,437.4916,227.5521,65.43241,48.68713
663176.1,439.4052,227.8635,65.52683,48.72598
663192.4,440.8972,227.9407,65.59998,48.7356
663211.6,442.2946,227.76,65.66812,48.71307
663227.6,443.3771,227.27,65.72066,48.65189
663243,444.7563,227.058,65.78728,48.62537
663259.8,446.2233,226.8967,65.85779,48.60516
663276.8,448.2657,226.2166,65.95529,48.51983
663293.6,449.9086,225.5686,66.0332,48.43826
663311.4,450.99,225.7621,66.08421,48.46265
663327.6,452.2818,226.518,66.14488,48.55769
663345.1,453.7886,226.9689,66.21529,48.6142
663361.9,455.1819,227.4693,66.28004,48.67678
663378.8,456.2012,227.8534,66.32721,48.72472
663394.1,457.3094,227.8407,66.37828,48.72313
663412.3,458.2777,227.0751,66.42274,48.6275
663427.9,458.6498,225.5353,66.43979,48.43406
663446.1,458.2621,223.2724,66.42203,48.14707
663462.2,457.8976,221.2186,66.40531,47.88379
663480,457.6041,219.3694,66.39183,47.64443
663495.4,457.4014,217.9884,66.38251,47.46424
663512.5,457.3472,217.9156,66.38002,47.45471
663529.4,457.5083,218.8087,66.38743,47.57143
663545.1,458.1245,220.9399,66.41573,47.84786
663560.6,458.6363,222.446,66.43917,48.04147
663576.7,459.1935,224.0639,66.46465,48.24782
663592.3,459.6643,226.2047,66.48614,48.51833
663609.7,459.6592,227.818,66.4859,48.72031
663626.6,459.2936,228.6272,66.46922,48.82101
663643.4,459.0202,229.2354,66.45673,48.89643
663660.9,459.4336,229.2034,66.47561,48.89246
663676.4,460.0514,228.2458,66.50378,48.77359
663693.5,460.326,227.6552,66.51627,48.7
663711.2,460.3172,227.2724,66.51587,48.65218
663728.3,460.1077,226.9123,66.50634,48.60712
663744.5,459.7762,226.4406,66.49124,48.54797
663760.8,459.0414,225.5537,66.4577,48.43637
663777.5,458.5717,225.1158,66.43621,48.3811
663793,458.4672,225.4783,66.43143,48.42686
663810.3,458.8515,226.8888,66.44901,48.60417
663826.4,459.4843,227.4852,66.47793,48.67877
663844.1,460.0981,227.4508,66.50591,48.67447
663860.4,460.1223,226.9968,66.507,48.6177
663877.6,459.0665,225.7052,66.45885,48.45547
663894,458.178,224.547,66.41817,48.30912
663912.3,457.8892,223.5463,66.40492,48.18198
663927.4,458.4576,222.0535,66.43099,47.99115
663945.4,459.1541,220.8263,66.46284,47.8332
663962,459.4798,218.8798,66.47771,47.58069
663979.2,459.629,216.4886,66.48453,47.26714
663995.1,459.7843,213.6695,66.49161,46.89262
664012.8,460.0507,211.1969,66.50375,46.55979
664029.9,460.0141,209.6723,66.50208,46.3525
664046.9,460.2929,208.3865,66.51476,46.17645
664065.4,460.2973,206.9075,66.51497,45.97254
664082.1,460.2943,205.4162,66.51483,45.7654
664095.8,460.3474,203.877,66.51724,45.55
664111.5,460.5331,202.253,66.5257,45.3209
664130.1,460.7827,201.0035,66.53703,45.14338
664147.7,461.6824,200.2038,66.57782,45.02918
664162.4,462.6529,198.8644,66.62168,44.83688
664181.4,463.6377,196.8026,66.66602,44.53833
664199.1,464.7227,195.0283,66.71469,44.27894
664212.8,465.6507,193.5769,66.75616,44.06502
664230,466.0707,194.0306,66.77489,44.13206
664247,466.1104,195.7079,66.77666,44.37856
664264.7,465.5302,199.043,66.75079,44.86259
664280.8,465.2086,201.7176,66.73642,45.24498
664299.6,465.502,203.7907,66.74953,45.53787
664315,466.4594,205.2959,66.79219,45.74863
664334.2,467.1123,206.4985,66.82121,45.91589
664347.3,467.3462,208.0247,66.83158,46.1267
664365.1,466.9519,211.0526,66.81409,46.54022
664383.1,466.7423,214.8087,66.80477,47.04459
664399.3,466.4713,218.6021,66.79272,47.54447
664413.3,465.5685,223.6629,66.75249,48.19683
664431.8,463.779,227.9075,66.67236,48.73146
664449.1,461.5843,230.9885,66.57338,49.11254
664466.8,458.7836,233.0574,66.44591,49.36521
664484.1,455.0871,234.2712,66.27565,49.51224
664498.4,450.8701,234.815,66.07856,49.57782
664513.7,446.8753,235.6421,65.88899,49.67724
664532.9,441.9815,236.0583,65.65289,49.72711
664550.9,436.6122,236.3044,65.38879,49.75655
664571.4,432.4739,236.7305,65.18155,49.80745
664582.8,427.9328,236.6933,64.95035,49.80302
664599.1,423.2394,237.0964,64.70712,49.85107
664616.8,418.2316,237.5305,64.44269,49.90272
664633.4,413.6429,238.5137,64.19582,50.01928
664650.7,408.431,241.051,63.90999,50.31751
664669,404.0204,243.8055,63.66346,50.63708
664684.4,399.6345,247.2916,63.41399,51.03539
664701.4,395.8347,251.7314,63.19429,51.53294
664716.6,392.0337,256.373,62.97113,52.04173
664733.6,388.2567,262.5385,62.74596,52.70011
664751.3,386.4837,270.0504,62.63906,53.47625
664767.6,384.7955,279.6735,62.53655,54.4307
664784.4,383.4914,286.4817,62.45687,55.08014
664801.1,383.1165,295.2509,62.43389,55.88668
664818.7,382.4951,301.3858,62.39572,56.4317
664833.9,381.709,306.5195,62.34729,56.87607
664849.5,380.4714,309.4504,62.27073,57.12512
664866.8,378.8042,312.3061,62.16697,57.3646
664888,376.9618,314.564,62.05146,57.55177
664901.6,375.0715,314.9738,61.93204,57.58554
664917.7,372.71,314.9667,61.78154,57.58495
664932.4,369.8047,314.3571,61.59433,57.5347
664951.3,367.4289,314.391,61.43953,57.5375
664968.6,364.7708,314.4864,61.26451,57.54537
664986.8,362.3519,314.8487,61.10352,57.57524
665007.3,359.5213,315.2173,60.91302,57.60557
665022.3,357.423,315.3492,60.77032,57.61641
665035.4,355.8019,315.1292,60.6592,57.59832
665051.8,354.5672,314.7791,60.57405,57.56951
665068.1,353.5043,314.6553,60.50038,57.5593
665087.3,353.0785,314.4579,60.47078,57.54302
665102.3,352.7002,314.2919,60.44443,57.52932
665117,352.1371,314.41,60.40513,57.53907
665133.9,351.5388,314.7012,60.36327,57.56309
665154,351.4101,314.8583,60.35426,57.57603
665167.4,351.3807,315.1581,60.35219,57.6007
665185.9,351.066,315.9854,60.33012,57.66862
665201.9,350.6782,316.8402,60.30288,57.73853
665218.5,350.218,317.6326,60.27049,57.80309
665235.4,349.6766,318.0429,60.2323,57.83643
665250.8,349.2184,317.7054,60.19991,57.80901
665267.6,348.6891,316.9892,60.16241,57.75068
665284.7,348.2872,316.6247,60.13389,57.72093
665302.8,348.0555,316.974,60.11742,57.74944
665318.1,348.0063,316.5657,60.11392,57.71611
665339,348.0869,316.2573,60.11965,57.69089
665350.1,348.1967,315.1965,60.12746,57.60386
665366.8,347.9456,314.3112,60.1096,57.53091
665383.6,347.532,312.8214,60.08015,57.4075
665401.8,347.1534,310.9692,60.05315,57.25288
665418,346.8354,309.5001,60.03043,57.12932
665434.3,346.7567,308.3458,60.0248,57.03165
665451.5,347.1364,307.4148,60.05193,56.9525
665468.4,347.7657,306.9148,60.0968,56.90985
665486.3,348.5394,307.0218,60.15179,56.91899
665502.3,349.8492,307.5903,60.24448,56.96745
665518,350.9776,307.5193,60.32391,56.9614
665533.1,352.3925,306.9733,60.42297,56.91485
665552.3,353.5628,306.2551,60.50444,56.85344
665569.2,354.7991,305.2695,60.59008,56.76884
665584.9,355.9757,304.3089,60.67115,56.686
665600.8,356.9498,303.434,60.73796,56.61025
665618.9,357.9635,302.0597,60.8072,56.49063
665640.1,358.5558,300.823,60.84752,56.38234
665654.3,358.9386,299.6003,60.87352,56.27467
665667.9,359.3459,298.4105,60.90114,56.1693
665684.1,359.554,297.6689,60.91524,56.10334
665701.6,359.2963,297.3598,60.89778,56.07578
665720,358.8797,297.3145,60.86952,56.07174
665735.8,358.4229,296.7788,60.83848,56.02387
665752.8,357.9857,295.7219,60.80871,55.92908
665768,357.3567,293.7537,60.76579,55.7513
665785.7,356.4153,291.9805,60.70134,55.58974
665803,355.5917,290.5302,60.64473,55.45661
665817.9,354.606,289.3394,60.57673,55.34662
665834.4,353.325,288.3094,60.48792,55.25098
665851.4,352.3369,287.7629,60.41909,55.20006
665866.9,351.5773,286.9485,60.36597,55.12392
665883.7,351.226,285.9558,60.34135,55.03072
665900.6,351.1871,285.0859,60.33862,54.94869
665918.7,351.618,284.6602,60.36882,54.90842
665935.7,352.8716,284.5375,60.45638,54.8968
665952.3,354.404,284.4765,60.56276,54.89103
665969.8,356.1801,284.8106,60.6852,54.92266
665985.1,357.6343,285.2311,60.78475,54.96241
666001.3,359.3481,285.6485,60.90129,55.00179
