Time Stamp(ms),Intersection,,Angle,
,x,y,x,y
654434.5,277.2867,259.8004,54.19803,52.41014
654450.5,277.3913,260.3055,54.20827,52.46392
654468.1,277.6702,260.7681,54.23559,52.51306
654486.3,278.1764,261.1858,54.28506,52.55733
654502.6,278.6071,261.5928,54.32706,52.60038
654519.4,279.0515,261.9329,54.37032,52.6363
654534.3,279.5665,262.1997,54.42032,52.66444
654551.5,280.1016,262.3918,54.47215,52.68467
654568.9,280.7755,262.5706,54.53724,52.70348
654585.8,281.364,262.7274,54.59391,52.71997
654603.5,282.0061,262.917,54.65556,52.73988
654618.6,282.539,262.9952,54.70658,52.7481
654635.3,283.0855,263.1124,54.75879,52.76039
654652.7,283.5589,263.1102,54.80388,52.76016
654669.9,284.0305,263.086,54.84872,52.75763
654688.4,284.3888,263.1581,54.88271,52.76519
654703.3,284.6367,263.2564,54.9062,52.77549
654723.6,284.8628,263.3767,54.9276,52.7881
654736.3,285.0334,263.4568,54.94373,52.7965
654752.3,285.2127,263.5628,54.96067,52.80759
654770.1,285.4191,263.6743,54.98015,52.81926
654787.2,285.6824,263.6775,55.00497,52.8196
654803,285.9792,263.7546,55.03292,52.82766
654821.4,286.2179,263.8155,55.05537,52.83403
654837.2,286.6959,263.6811,55.10024,52.81997
654852.5,287.259,263.6712,55.15298,52.81894
654871.3,288.2538,263.6972,55.24581,52.82166
654888.6,289.4051,263.7059,55.3527,52.82257
654903.9,290.7901,263.6964,55.48053,52.82158
654919.8,292.7291,263.6835,55.65811,52.82022
654935.1,294.7814,263.7702,55.84433,52.8293
654957,296.9418,263.9387,56.03844,52.84691
654970.8,299.5973,264.2854,56.2744,52.88311
654994.4,302.1619,264.6562,56.49955,52.92175
655007.6,304.3901,264.9232,56.69302,52.94954
655021.9,307.1593,265.2567,56.93073,52.9842
655038.6,310.0697,265.5385,57.17733,53.01343
655053.8,313.5396,265.9008,57.46709,53.05097
655069.7,316.9327,266.2584,57.74607,53.08796
655087.6,320.3036,266.6229,58.01904,53.12559
655104.6,323.2642,267.186,58.25537,53.1836
655119.1,325.5264,267.7066,58.43387,53.23709
655135.1,327.4581,268.2686,58.58487,53.29468
655152.4,329.7157,268.7358,58.7597,53.34244
655169.7,331.9561,269.2797,58.93148,53.39791
655186.9,333.9344,270.1036,59.08176,53.48166
655204.3,335.6028,270.9612,59.20749,53.56849
655220.4,336.8247,271.6489,59.29898,53.63785
655235.3,337.9173,272.2426,59.38037,53.69755
655251.4,339.4573,272.752,59.49444,53.74863
655268.9,341.0857,273.3697,59.61422,53.81042
655286.6,342.5275,273.9167,59.71957,53.86499
655303.6,343.9907,274.4528,59.82581,53.91833
655318.9,345.3997,274.9099,59.92747,53.96369
655335.8,346.7876,275.4247,60.02701,54.01468
655353.9,347.9735,275.8035,60.11159,54.05211
655369.9,349.032,276.1627,60.18672,54.08754
655387.8,349.8978,276.4561,60.24791,54.11644
655403.4,350.6094,276.7435,60.29803,54.1447
655419,351.4378,277.0079,60.3562,54.17067
655434.8,352.2378,277.3012,60.41217,54.19945
655451.7,352.9938,277.6042,60.46488,54.22913
655468.7,353.6524,277.9474,60.51067,54.2627
655485.3,354.243,278.2834,60.55161,54.29551
655502.3,354.8745,278.562,60.59528,54.32267
655518.4,355.5146,278.8393,60.63943,54.34968
655535,356.3672,279.093,60.69803,54.37436
655555.1,357.0187,279.3077,60.74268,54.39521
655571.2,357.6256,279.4332,60.78416,54.40739
655588.3,358.1886,279.4341,60.82253,54.40748
655604.4,358.7684,279.4387,60.86196,54.40792
655621.9,359.4355,279.2227,60.90721,54.38696
655637.4,360.1669,278.955,60.95667,54.36093
655653.6,361.037,278.5196,61.01531,54.31854
655671.6,361.7166,278.2441,61.06096,54.29168
655687.3,362.5035,277.7891,61.11365,54.24722
655705.3,363.6888,277.067,61.19269,54.17647
655721.2,364.808,276.3902,61.26696,54.10995
655738.3,365.8759,275.7072,61.33751,54.0426
655753.8,366.9192,274.9264,61.40612,53.96533
655771.8,367.6973,274.1979,61.45709,53.89298
655787.1,368.5347,273.2039,61.51177,53.79385
655807.8,369.4837,272.3379,61.5735,53.70712
655827.3,370.0272,271.8524,61.60874,53.65833
655840.3,370.0294,271.4176,61.60889,53.61454
655855.9,370.2814,270.8695,61.6252,53.55922
655870.4,370.7212,270.3279,61.65363,53.5044
655888.9,371.057,269.6369,61.6753,53.43426
655907.1,371.2168,268.7686,61.6856,53.34579
655924.4,371.4023,268.1444,61.69756,53.28196
655938.6,371.6022,267.2179,61.71042,53.18688
655954.7,371.8104,266.3395,61.72381,53.09634
655971.1,371.9915,265.4741,61.73545,53.00675
655989.4,372.1073,264.667,61.74289,52.92288
656006.1,372.1718,263.8235,61.74703,52.83487
656025.1,372.2262,262.9238,61.75052,52.7406
656044.1,372.1615,261.7181,61.74636,52.61362
656058.4,372.1806,260.7565,61.7476,52.51183
656072.7,372.2539,259.5977,61.7523,52.38852
656090.3,372.3366,258.6625,61.7576,52.28851
656106.7,372.354,257.2374,61.75872,52.13522
656143.4,372.1774,255.863,61.74739,51.98639
656159.1,372.0909,255.1549,61.74184,51.90932
656172.6,372.0108,254.5764,61.73669,51.84616
656185.3,371.8905,254.05,61.72896,51.78853
656197.1,371.7751,253.4808,61.72154,51.72605
656208.9,371.4827,252.8577,61.70273,51.65746
656225,371.0428,252.113,61.67438,51.57521
656242.4,370.8308,251.392,61.66071,51.49529
656258.5,370.6653,250.8118,61.65002,51.43077
656273.8,370.3102,250.2722,61.62706,51.37061
656292.6,369.9565,249.8694,61.60416,51.32559
656310.8,369.6128,249.567,61.58187,51.29174
656327.8,369.3268,249.2863,61.56331,51.26026
656342,368.8504,249.0383,61.53233,51.23243
656358.6,368.4016,248.8376,61.50309,51.20987
656373.5,367.6683,248.7021,61.4552,51.19463
656392.4,366.8459,248.4273,61.40131,51.1637
656407.9,366.1604,248.0585,61.35625,51.12211
656426.6,365.7063,247.7167,61.32633,51.08349
656442.3,365.3281,247.3562,61.30136,51.04271
656458.6,364.9201,246.9128,61.27439,50.99243
656475.6,364.6076,246.5759,61.25369,50.95417
656492.8,364.3905,246.1596,61.2393,50.9068
656510.3,364.2397,245.7309,61.2293,50.85791
656528.3,364.1321,245.2372,61.22215,50.80148
656546.4,364.1197,244.8151,61.22133,50.75313
656561.6,364.3141,244.4732,61.23423,50.7139
656576.5,364.4891,244.2032,61.24584,50.68286
656591.6,364.6615,243.9542,61.25726,50.65421
656609.5,364.9448,243.5371,61.27602,50.60613
656625.9,365.1443,243.2021,61.28921,50.56744
656642.9,365.4279,242.9428,61.30795,50.53745
656658.6,365.7657,242.6414,61.33024,50.50255
656674.5,366.1944,242.3681,61.35849,50.47085
656691.4,366.5,242.1805,61.37859,50.44908
656707.9,366.6602,242.0793,61.38912,50.43732
656724.3,366.8366,241.9378,61.4007,50.42086
656741.3,367.1117,241.8932,61.41875,50.41568
656757.9,367.3952,241.8203,61.43732,50.4072
656773.6,367.6109,241.6771,61.45144,50.39053
656790.9,367.8482,241.6444,61.46696,50.38672
656807.2,368.047,241.5935,61.47995,50.38079
656828.3,368.3245,241.7224,61.49806,50.3958
656841.3,368.6636,241.7171,61.52017,50.39518
656861.6,368.9736,241.8501,61.54035,50.41067
656875.6,369.3348,241.6685,61.56383,50.38953
656892.4,369.7407,241.5482,61.59017,50.37551
656908.9,370.1583,241.4204,61.61723,50.36061
656925.6,370.5332,241.1592,61.64148,50.33014
656943.3,370.8804,240.9628,61.66391,50.30721
656958.9,371.224,240.8391,61.68607,50.29274
656975.3,371.5149,240.567,61.7048,50.26091
656996.6,371.5335,240.3761,61.706,50.23854
657011.1,371.6046,240.1483,61.71057,50.21183
657025,371.5674,239.7382,61.70818,50.16367
657044.3,371.5692,239.3455,61.7083,50.11746
657058.6,371.4945,238.9697,61.70349,50.07316
657074.8,371.4016,238.5817,61.69751,50.02732
657091.2,371.1264,238.2185,61.67977,49.98435
657108,370.9499,237.8602,61.66839,49.94187
657125.1,370.6873,237.6818,61.65144,49.9207
657142.1,370.2885,237.5521,61.62566,49.90528
657155.9,369.9499,237.4124,61.60373,49.88868
657173.5,369.5202,237.3804,61.57587,49.88487
657191.1,369.0892,237.5023,61.54787,49.89937
657210.3,368.7378,237.6575,61.525,49.91781
657224.1,368.1686,238.0041,61.48789,49.95893
657242.2,367.547,238.28,61.44727,49.99163
657260.1,366.9522,238.7422,61.40828,50.0463
657276.1,366.4018,239.2729,61.37213,50.10891
657291.3,365.9922,240.0133,61.34517,50.19599
657309.3,365.7678,240.8809,61.33038,50.29763
657326,365.4875,241.7605,61.31189,50.40024
657343.4,365.131,242.9878,61.28833,50.54266
657359.2,364.792,244.3795,61.2659,50.70313
657373.6,364.4136,246.2552,61.24083,50.91769
657394.6,364.1363,247.6527,61.22243,51.07626
657411.9,364.0426,249.5673,61.21621,51.29177
657425.1,364.2014,251.4533,61.22676,51.50209
657442.4,364.7288,252.9863,61.26172,51.67164
657457.8,365.7498,254.7119,61.3292,51.86097
657474.3,365.9683,256.4958,61.34359,52.05503
657492,366.2392,258.1667,61.36143,52.23529
657509.8,366.1631,260.0741,61.35642,52.4393
657525.8,366.3182,261.6582,61.36663,52.6073
657542.2,367.1289,263.3346,61.41987,52.78369
657559.5,367.8587,264.6044,61.46765,52.91636
657574.4,368.6206,266.1064,61.51736,53.07224
657591.5,369.1293,267.6551,61.55047,53.2318
657609,369.3803,269.1182,61.56679,53.38145
657629.4,369.4659,270.0922,61.57235,53.4805
657642.5,369.5494,270.9267,61.57777,53.56499
657658.8,369.5737,271.6561,61.57934,53.63857
657675.6,369.3393,272.2072,61.56413,53.694
657696.6,368.9555,272.6266,61.53917,53.73608
657708.9,368.3556,272.841,61.50009,53.75756
657726.7,367.7631,273.0775,61.4614,53.78122
657747.5,366.9111,273.1122,61.40559,53.78469
657764.8,366.2453,273.1565,61.36184,53.78912
657776.6,365.6727,273.2776,61.32411,53.80122
657791.8,365.0854,273.294,61.28532,53.80287
657810.8,364.4962,273.4251,61.24631,53.81596
657832.3,364.0808,273.4305,61.21875,53.81649
657870.3,364.5696,274.2108,61.25117,53.89427
657883.9,364.5231,274.4458,61.2481,53.91763
657894.9,364.349,274.6855,61.23655,53.94144
657904.9,364.225,274.9023,61.22832,53.96294
657916,364.3105,275.2458,61.23399,53.99697
657929.4,364.3758,275.5116,61.23832,54.02327
657943.2,364.3779,275.8166,61.23846,54.05339
657959.4,364.4272,276.0432,61.24173,54.07576
657975.8,364.4858,276.1607,61.24562,54.08735
657993.3,364.383,276.2862,61.2388,54.0997
658009.8,364.1605,276.3931,61.22404,54.11023
658027,363.9795,276.543,61.21202,54.12498
658044.4,363.8553,276.6352,61.20377,54.13405
658063.1,363.6808,276.8278,61.19216,54.15298
658081.6,363.3812,276.989,61.17222,54.16882
658097.8,362.9617,277.2835,61.14425,54.19771
658113,362.2448,277.6845,61.09634,54.23699
658131.9,361.657,277.9213,61.05696,54.26014
658144.4,361.0166,278.4236,61.01394,54.30918
658164,360.3009,278.9354,60.96572,54.35903
658183.8,359.4019,279.6036,60.90494,54.42392
658196.6,358.5252,280.1723,60.84544,54.47899
658212.3,357.442,280.7595,60.77162,54.5357
658231.3,356.3738,281.2883,60.69849,54.58663
658249.1,355.3932,281.7723,60.63107,54.63314
658265.3,354.3613,282.2367,60.5598,54.67766
658278.4,353.032,282.8849,60.46754,54.73964
658296.6,351.5985,283.5488,60.36745,54.80292
658314.3,350.2073,284.0829,60.26973,54.8537
658331.3,348.693,284.6802,60.16269,54.91032
658347.8,347.2483,285.2406,60.05992,54.96331
658364.1,345.7336,285.9131,59.95148,55.0267
658380.3,343.7969,286.551,59.81178,55.08665
658397.9,341.4121,287.3552,59.63813,55.16198
658421.3,339.6809,287.8822,59.51094,55.21118
658430.8,337.7465,288.2885,59.36768,55.24904
658445.6,335.6506,288.8402,59.21107,55.30033
658462.7,333.2541,289.4544,59.03023,55.35727
658480.5,331.1331,289.8503,58.86858,55.39388
658495.6,328.1645,290.3173,58.63976,55.43699
658523,325.1335,290.7344,58.403,55.47541
658543.9,322.4142,291.0469,58.18784,55.50414
658552.2,320.8892,291.2171,58.06603,55.51978
658562.3,318.2807,291.4942,57.85573,55.5452
658582.7,315.4875,291.7709,57.62777,55.57056
658601.1,313.3316,291.9335,57.44985,55.58545
658616.1,311.4352,292.2065,57.2919,55.61041
658630.4,309.2227,292.5313,57.10589,55.64007
658648,307.2732,292.8094,56.94044,55.66543
658665.3,305.3383,293.1262,56.77475,55.69429
658682,303.3804,293.5019,56.6056,55.72844
658698.2,301.702,293.8192,56.45937,55.75725
658713.9,299.9062,294.3365,56.30166,55.80412
658731.4,298.0125,294.8374,56.13394,55.84938
658749.1,296.3584,295.1964,55.98622,55.88177
658766.8,294.9105,295.4388,55.85598,55.9036
658781.1,293.2761,295.6606,55.70792,55.92356
658797.1,291.7133,295.8535,55.56529,55.9409
658815.4,289.9412,295.9853,55.40228,55.95274
658835.6,288.2546,296.095,55.24589,55.96259
658847.6,286.7569,296.1829,55.10596,55.97048
658864.4,285.3302,296.2129,54.97176,55.97317
658881.9,283.9053,296.3653,54.83682,55.98684
658898.8,282.5672,296.499,54.70928,55.99881
658913.1,281.0054,296.6232,54.5594,56.00994
658932.4,279.5036,296.7342,54.41422,56.01988
658948.5,278.1631,296.8099,54.28377,56.02665
658963.1,276.8174,296.8516,54.15197,56.03038
658979.3,275.5392,296.9669,54.02599,56.04069
658994.9,274.1666,296.9092,53.88987,56.03553
659012.8,272.8945,296.8889,53.76291,56.03372
659029.4,271.6325,296.9084,53.6362,56.03546
659045.8,270.3304,297.1152,53.50466,56.05395
659062.9,268.9894,297.3507,53.36832,56.07497
659080.3,267.5753,297.5864,53.22361,56.09599
659096.3,266.2191,297.8013,53.08389,56.11514
659111.8,264.8179,297.8204,52.93858,56.11684
659129.3,263.514,297.9359,52.80249,56.12712
659149,262.4051,297.918,52.68606,56.12553
659164.6,261.1185,297.9459,52.55021,56.12801
659181.9,259.9601,297.8607,52.42716,56.12042
659196.3,258.7909,297.6688,52.30227,56.10333
659212.6,257.6368,297.5602,52.17829,56.09365
659229.7,256.6351,297.6685,52.07013,56.10331
659246,255.6879,297.7494,51.96736,56.11051
659263.6,254.7577,297.8779,51.86597,56.12196
659279.8,253.7293,298.021,51.75335,56.13469
659297.7,253.1162,298.2033,51.68594,56.1509
659313.3,252.6055,298.2841,51.62964,56.15808
659329.7,252.1559,298.4977,51.57996,56.17705
659346.9,251.8896,298.783,51.55048,56.20236
659365.7,251.6079,298.9457,51.51925,56.21677
659380.1,251.4479,299.2216,51.5015,56.2412
659397,251.3872,299.3257,51.49475,56.2504
659412.8,251.4211,299.2327,51.49851,56.24217
659430,251.374,299.1848,51.49329,56.23793
659447.6,251.1442,299.1724,51.46775,56.23684
659466.3,250.8235,299.0927,51.43208,56.22979
659482.1,250.5083,299.0589,51.39694,56.2268
659500.6,250.1708,298.9869,51.35928,56.22042
659516.2,249.9196,298.7265,51.3312,56.19735
659533.4,249.658,298.4763,51.30193,56.17515
659550.3,249.4011,298.3808,51.27314,56.16667
659563.8,249.1263,298.2439,51.24231,56.15451
659580.3,248.741,298.1604,51.19901,56.14709
659596.9,248.3625,298.0394,51.15639,56.13633
659614.1,247.9743,297.8581,51.11261,56.12019
659630.8,247.4268,297.6621,51.0507,56.10274
659650.8,246.7312,297.3869,50.97181,56.0782
659669.3,245.9538,297.2253,50.88335,56.06378
659689.2,245.0133,297.0515,50.77585,56.04825
659703.1,244.1429,296.8055,50.67593,56.02626
659718.9,243.4551,296.691,50.59667,56.01601
659736.7,242.4458,296.5024,50.47987,55.99913
659753,241.5293,296.4819,50.37331,55.99728
659768.3,240.2664,296.3652,50.22569,55.98683
659794.8,239.6382,296.2913,50.15191,55.9802
659809.2,238.9939,296.3846,50.07601,55.98856
659819.8,238.202,296.3756,49.98238,55.98776
659835.4,237.4182,296.2709,49.88936,55.97837
659851.7,236.3313,296.0203,49.75978,55.95588
659868.4,235.2276,295.8554,49.62747,55.94107
659886.4,234.31,295.8416,49.51692,55.93983
659901.6,233.4609,295.8651,49.41418,55.94194
659917.9,232.6818,295.9594,49.31952,55.95041
659934.4,231.8008,296.1185,49.21205,55.9647
659951.3,230.9205,296.3237,49.1042,55.98311
659968.9,230.1314,296.41,49.00711,55.99084
659986.9,229.4869,296.4615,48.92754,55.99546
660004.8,229.0544,296.4589,48.874,55.99523
660019.2,228.5915,296.3959,48.81657,55.98958
660035.2,228.226,296.3285,48.77112,55.98354
660050.3,227.8828,296.2796,48.72839,55.97915
660066.9,227.6386,296.2011,48.69792,55.97211
660083.6,227.5814,296.0785,48.69078,55.96111
660100.9,227.4725,296.034,48.67719,55.95712
660116.9,227.2203,296.0102,48.64567,55.95498
660133.3,226.9516,295.9606,48.61204,55.95053
660151.6,226.8284,295.9381,48.59661,55.94851
660168.8,226.8356,295.8322,48.59752,55.93899
660185.8,226.76,295.7528,48.58804,55.93185
660203.4,226.6721,295.7483,48.57701,55.93145
660219.9,226.6429,295.7329,48.57336,55.93007
660233.8,226.5256,295.7777,48.55864,55.93409
660250.7,226.3746,295.8098,48.53968,55.93697
660267.2,226.2736,295.7812,48.52699,55.9344
660284.2,226.0842,295.8459,48.50318,55.94022
660302.1,226.3383,295.7656,48.53513,55.93301
660322.7,226.2835,295.7261,48.52824,55.92945
660342.6,226.2261,295.8077,48.52103,55.93679
660354.9,226.1324,295.8704,48.50924,55.94242
660368.2,226.064,295.9114,48.50064,55.94611
660385,226.0236,296.0829,48.49556,55.9615
660405.4,226.048,296.3373,48.49864,55.98433
660423.6,226.0836,296.5872,48.50311,56.00672
660437.4,226.1621,296.9553,48.51298,56.03965
660451.6,226.2554,297.4412,48.52471,56.08304
660470.8,226.4711,298.0074,48.5518,56.13348
660488.6,226.8079,298.6346,48.59404,56.18919
660504,227.2954,299.4776,48.65505,56.26383
660519.9,227.6623,300.2993,48.70088,56.3363
660536.7,228.1701,301.0801,48.76417,56.4049
660554.3,229.1046,301.9423,48.88022,56.48038
660571.5,230.8597,303.4624,49.09673,56.61271
660604.9,232.3681,304.7442,49.28131,56.72359
660621.3,233.3319,305.7245,49.39853,56.80794
660632.9,234.0145,306.4292,49.48122,56.86834
660643.9,234.6972,307.0148,49.56363,56.9184
660652.4,235.7645,307.5272,49.69193,56.96207
660667.3,237.0697,308.1243,49.84789,57.01285
660685.4,238.1624,308.2044,49.9777,57.01966
660702,239.2766,308.4155,50.10934,57.03757
660719.3,240.3462,308.5154,50.23504,57.04603
660735.9,241.5635,308.4667,50.3773,57.0419
660753.3,242.7057,308.3396,50.51,57.03113
660770.6,243.9627,308.0699,50.65519,57.00823
660788.6,244.7533,307.8739,50.74604,56.99158
660803.9,245.5867,307.6991,50.84144,56.97671
660821.6,246.287,307.5917,50.92131,56.96757
660837.5,247.0673,307.3922,51.00997,56.95058
660855.1,247.8331,307.2564,51.09666,56.93901
660870.3,248.5088,307.2387,51.17288,56.93749
660887.7,248.9692,307.2078,51.22466,56.93486
660904.4,249.4225,307.2566,51.27554,56.93902
660921.3,249.968,307.3582,51.33661,56.94769
660937.3,250.5535,307.4879,51.40199,56.95873
660953.9,251.1136,307.6522,51.46435,56.97272
660971.8,251.5171,307.8684,51.50918,56.99111
660988.5,251.8484,308.1185,51.54591,57.01236
661005,252.3301,308.2994,51.59922,57.02772
661022.3,253.0381,308.6566,51.67734,57.058
661039.5,253.8632,308.6335,51.76804,57.05605
661054,254.7734,308.6351,51.86768,57.05618
661072,255.8926,308.473,51.9896,57.04244
661089.9,256.8655,308.4638,52.09505,57.04166
661106.1,258.2142,308.3942,52.24041,57.03576
661123.8,259.4105,308.3739,52.36853,57.03404
661141.2,260.4648,308.3254,52.48085,57.02992
661156.4,261.664,308.1515,52.60791,57.01516
661172.3,263.0171,307.9998,52.7504,57.00228
661190.9,264.3372,307.9106,52.8885,56.9947
661207.3,265.7147,307.7614,53.0317,56.98201
661225,266.7847,307.5882,53.14228,56.96727
661241.3,267.7034,307.4614,53.23676,56.95647
661256.7,268.5349,307.2648,53.32191,56.93972
661273.5,269.3203,307.2743,53.40204,56.94053
661291.9,270.0269,307.3442,53.47388,56.94649
661308.9,270.6393,307.4282,53.53594,56.95365
661324.6,271.2489,307.561,53.59753,56.96495
661339.8,271.821,307.7817,53.65517,56.98374
661356.1,272.4128,307.929,53.71463,56.99626
661373.6,272.9705,308.2595,53.77051,57.02433
661392.3,273.6919,308.5735,53.84258,57.05096
661410.9,274.8984,308.8858,53.96256,57.0774
661430.9,276.2552,309.1253,54.09666,57.09767
661442,277.9001,309.2939,54.25808,57.11191
661454.2,280.043,309.5833,54.46648,57.13634
661472.5,282.9252,309.7392,54.74348,57.14949
661490,285.6443,310.2323,55.00138,57.19101
661507.8,287.9502,310.6798,55.21753,57.2286
661523.9,290.6806,311.1154,55.47046,57.26513
661538.9,293.3647,311.4695,55.71597,57.29478
661554.6,296.3787,311.6736,55.98804,57.31183
661572.9,299.2594,311.7749,56.24454,57.32029
661589.9,301.6643,311.926,56.45607,57.33291
661606.9,303.6219,311.9557,56.62654,57.33539
661623.3,305.7755,311.9692,56.81232,57.33652
661640.3,307.8304,312.0018,56.98788,57.33924
661656.3,309.7109,311.9107,57.1471,57.33164
661673.3,311.1986,311.9626,57.2721,57.33597
661688.4,312.3318,312.1037,57.36675,57.34774
661707.3,313.2789,312.0893,57.44548,57.34653
661724.4,314.2429,311.9926,57.52527,57.33847
661741.9,314.9584,311.9335,57.58427,57.33354
661757.1,315.7462,311.994,57.649,57.33858
661773.4,316.4648,312.1229,57.70786,57.34934
661790.9,316.8787,312.2623,57.74167,57.36096
661807.9,317.349,312.2909,57.78001,57.36334
661824.8,317.925,312.2901,57.82685,57.36328
661840.1,318.5542,312.235,57.8779,57.35868
661856.8,319.084,312.0984,57.92075,57.3473
661872.7,319.7942,311.9297,57.97805,57.33322
661890.8,320.432,311.769,58.02935,57.31981
661907.3,321.0987,311.6031,58.08281,57.30595
661923.6,322.0115,311.385,58.15576,57.28771
