Time Stamp(ms),Intersection,,Angle,
,x,y,x,y
1718702,314.0602,292.9335,57.51018,55.67673
1718718,313.7862,293.4325,57.48752,55.72213
1718735,313.6634,293.9778,57.47735,55.77163
1718754,313.4583,294.4829,57.46035,55.81736
1718771,313.2351,295.0099,57.44185,55.86496
1718787,313.1838,295.4352,57.43759,55.90327
1718804,313.2309,295.8172,57.4415,55.93764
1718819,313.3421,296.2513,57.45073,55.97661
1718837,313.3743,296.4714,57.45339,55.99634
1718853,313.5075,297.0489,57.46444,56.04802
1718870,313.5912,297.3296,57.47137,56.07309
1718888,313.7921,297.7313,57.488,56.1089
1718903,313.9276,298.1293,57.49921,56.14433
1718920,314.036,298.3251,57.50818,56.16172
1718937,314.3027,298.6627,57.53021,56.19168
1718954,314.7872,298.9362,57.57017,56.21593
1718983,315.253,299.0872,57.6085,56.2293
1718998,315.583,299.0753,57.63561,56.22825
1719009,315.8148,298.9273,57.65464,56.21514
1719020,316.0772,298.8779,57.67614,56.21076
1719036,316.4161,298.8385,57.70388,56.20728
1719053,316.7579,298.4781,57.73181,56.17531
1719071,316.8644,298.5413,57.7405,56.18092
1719087,317.0291,298.5227,57.75394,56.17926
1719104,317.1292,298.4416,57.7621,56.17207
1719121,317.0599,298.4914,57.75645,56.17649
1719138,317.0002,298.4655,57.75158,56.17419
1719155,316.7928,298.4309,57.73466,56.17112
1719172,316.5483,298.5741,57.71468,56.18383
1719189,316.4019,298.6504,57.70272,56.1906
1719205,316.1714,298.61,57.68385,56.18702
1719221,316.0336,298.7072,57.67257,56.19564
1719237,315.9951,298.7047,57.66941,56.19542
1719253,315.963,298.8459,57.66678,56.20793
1719272,315.9796,298.9227,57.66815,56.21473
1719290,316.0683,299.1014,57.67541,56.23056
1719306,316.2037,299.1125,57.6865,56.23154
1719322,316.4536,299.2466,57.70694,56.2434
1719343,316.5965,299.308,57.71862,56.24884
1719357,316.8144,299.4183,57.73642,56.25859
1719371,317.0329,299.6188,57.75425,56.27631
1719388,317.1552,299.6119,57.76422,56.27569
1719404,317.2348,299.78,57.77071,56.29053
1719423,317.2613,299.7766,57.77287,56.29023
1719439,317.2874,299.8148,57.77499,56.2936
1719455,317.251,299.812,57.77203,56.29335
1719472,317.0156,299.8686,57.75284,56.29834
1719492,316.7191,299.9133,57.72864,56.30229
1719506,316.2268,299.9004,57.68839,56.30115
1719523,315.6986,299.8796,57.6451,56.29932
1719540,315.0073,299.7898,57.58829,56.29139
1719557,313.9549,299.753,57.50147,56.28814
1719573,312.9227,299.7801,57.41591,56.29054
1719590,311.5853,299.9488,57.30445,56.30542
1719606,310.1911,300.2513,57.18754,56.33207
1719622,308.5396,300.5225,57.04809,56.35593
1719639,306.8324,300.3491,56.90282,56.34068
1719659,304.8999,300.5051,56.73701,56.3544
1719673,302.925,300.6301,56.56603,56.36539
1719690,301.0562,300.7954,56.4028,56.37992
1719706,299.446,300.8326,56.26104,56.38318
1719725,297.7744,301.0662,56.11274,56.40368
1719739,296.1643,301.3982,55.96881,56.43278
1719754,294.3871,301.3572,55.80869,56.42919
1719772,292.8117,302.4137,55.66564,56.52151
1719789,290.7607,301.6157,55.47783,56.45182
1719804,289.1158,302.3145,55.32589,56.51286
1719822,286.632,302.5596,55.09425,56.53423
1719838,284.404,303.0421,54.88416,56.57621
1719854,281.8443,303.4685,54.64005,56.61324
1719874,279.1125,303.7177,54.37625,56.63485
1719888,276.5826,304.1345,54.12889,56.67093
1719905,274.0954,304.6555,53.88279,56.71594
1719923,271.5717,305.2046,53.63008,56.76324
1719938,269.1968,305.7246,53.38947,56.80795
1719956,266.4105,306.2943,53.10367,56.8568
1719972,263.6883,306.9432,52.82073,56.91228
1719989,261.0834,307.5921,52.54648,56.9676
1720006,258.8661,308.1409,52.31032,57.01427
1720021,256.5098,308.7067,52.05655,57.06225
1720040,254.5612,309.3244,51.84449,57.11449
1720055,252.4865,310.1856,51.6165,57.18708
1720071,250.2988,311.1218,51.37357,57.26567
1720089,248.57,312.0331,51.17976,57.34185
1720104,247.1745,312.9528,51.02212,57.41841
1720120,245.9248,313.9681,50.88004,57.50256
1720138,244.8323,314.9362,50.7551,57.58245
1720153,244.1086,316.5363,50.67199,57.7137
1720171,243.6933,318.119,50.62415,57.84261
1720189,243.4128,319.391,50.59179,57.94554
1720206,243.5077,320.4114,50.60274,58.02769
1720222,244.0986,321.3842,50.67083,58.10566
1720239,244.4726,322.4688,50.71383,58.19219
1720255,244.9303,323.6922,50.76633,58.28929
1720272,245.4296,324.8987,50.82349,58.38452
1720289,246.0039,325.5474,50.88905,58.43552
1720304,246.6684,327.3347,50.96469,58.57526
1720324,246.7828,328.5455,50.97768,58.6693
1720341,246.9471,329.8795,50.99633,58.77232
1720357,247.2652,331.0698,51.03241,58.86373
1720373,247.5829,332.3344,51.06837,58.96033
1720394,247.7605,333.9354,51.08846,59.08184
1720407,247.9594,335.5829,51.11092,59.20599
1720423,248.3628,337.6257,51.15642,59.35869
1720443,248.9387,339.8166,51.22124,59.52094
1720455,249.6418,342.6034,51.30011,59.7251
1720474,250.6184,345.9367,51.40922,59.96605
1720491,252.9071,351.8379,51.66291,60.38421
1720525,257.0053,355.9047,52.11016,60.66627
1720542,258.2225,356.8458,52.24129,60.73084
1720550,259.0536,357.7098,52.33039,60.78991
1720559,260.0142,358.2781,52.43292,60.82863
1720575,261.2515,359.2296,52.56429,60.89326
1720593,262.3823,360.1881,52.68366,60.9581
1720617,263.3996,361.2523,52.7905,61.02979
1720628,263.6729,361.7395,52.81912,61.0625
1720640,263.8851,362.5824,52.8413,61.11893
1720654,263.9637,363.3226,52.84953,61.16832
1720673,264.1657,363.7263,52.87061,61.19519
1720689,264.4761,364.0512,52.90299,61.21679
1720705,264.9779,364.3459,52.95522,61.23634
1720721,265.2787,364.5793,52.98648,61.25182
1720738,265.3177,365.0247,52.99053,61.2813
1720754,265.221,365.6596,52.98049,61.32325
1720773,265.5105,366.1564,53.01054,61.35598
1720790,265.9116,366.6784,53.05209,61.39031
1720807,265.9388,367.1106,53.05491,61.41867
1720822,265.9023,367.4109,53.05112,61.43835
1720839,265.7586,367.5606,53.03625,61.44815
1720855,265.5708,367.3038,53.01678,61.43134
1720872,265.5287,367.3484,53.01242,61.43426
1720892,265.6226,367.3607,53.02215,61.43507
1720909,265.7712,367.5458,53.03756,61.44719
1720924,265.9759,368.095,53.05874,61.48309
1720941,266.075,369.0016,53.06899,61.54218
1720960,265.771,370.1407,53.03753,61.61609
1720973,264.8059,371.7798,52.93734,61.72185
1720991,263.778,373.168,52.83011,61.81084
1721010,262.7535,374.2451,52.72271,61.87954
1721026,262.1181,375.0765,52.65583,61.93237
1721043,261.7473,375.8123,52.61671,61.97896
1721057,261.4207,376.2587,52.58219,62.00716
1721074,261.0744,376.7612,52.54553,62.03884
1721092,261.0596,376.9,52.54396,62.04758
1721109,261.1825,377.1644,52.55698,62.06421
1721125,261.3714,377.5338,52.57698,62.08742
1721141,261.7333,377.8422,52.61523,62.10677
1721158,262.0346,378.589,52.64703,62.15352
1721175,263.154,379.3475,52.76476,62.20086
1721193,264.3736,379.7103,52.8923,62.22345
1721213,264.777,380.8273,52.93433,62.29279
1721225,264.7923,381.4844,52.93592,62.33342
1721241,264.506,381.5932,52.90611,62.34014
1721257,264.0913,381.3318,52.86285,62.324
1721275,263.5935,381.026,52.81081,62.30508
1721292,263.1186,380.5314,52.76104,62.27444
1721310,262.6038,380.4003,52.70697,62.26631
1721326,262.1696,380.3613,52.66125,62.2639
1721343,262.1589,379.9559,52.66013,62.23872
1721359,262.4343,379.1942,52.68913,62.1913
1721375,262.8449,378.4486,52.73232,62.14474
1721393,263.3185,377.6816,52.78201,62.09669
1721410,263.6483,376.9396,52.81654,62.05007
1721427,263.8156,376.4525,52.83404,62.01938
1721444,264.1275,375.9985,52.86663,61.99073
1721459,264.5402,375.706,52.90967,61.97224
1721477,264.8883,375.3327,52.94591,61.9486
1721497,265.0247,375.1221,52.9601,61.93526
1721508,264.9087,374.9108,52.94803,61.92186
1721524,264.7557,374.6425,52.93211,61.90482
1721542,264.6352,374.2615,52.91956,61.88059
1721559,264.555,373.972,52.91121,61.86215
1721576,264.3369,373.5209,52.88847,61.83339
1721593,264.1443,373.1348,52.86838,61.80872
1721609,263.8597,372.6621,52.83865,61.77847
1721634,263.6088,372.2991,52.81241,61.7552
1721644,263.5771,372.1743,52.80909,61.74718
1721659,263.6902,371.0447,52.82093,61.6745
1721673,264.011,370.2429,52.85446,61.62271
1721690,264.0748,369.6816,52.86113,61.58635
1721710,264.1979,369.2513,52.87397,61.5584
1721725,264.5143,368.2961,52.90697,61.49622
1721741,264.7092,367.079,52.92728,61.41661
1721758,264.7596,365.7648,52.93252,61.33018
1721775,264.9915,363.86,52.95664,61.20408
1721792,265.5894,362.0555,53.01871,61.08367
1721808,266.2689,360.0452,53.08904,60.94845
1721825,266.8833,357.6333,53.15243,60.78468
1721842,267.401,354.779,53.20571,60.58868
1721858,267.9235,351.8486,53.25933,60.38496
1721874,268.2878,348.0112,53.29664,60.11427
1721900,268.6319,343.9482,53.33183,59.82273
1721913,268.7028,341.2186,53.33907,59.62396
1721923,268.77,337.9362,53.34594,59.38177
1721940,268.7068,334.6668,53.33948,59.13707
1721957,268.4477,331.8438,53.313,58.92291
1721973,267.9785,328.9773,53.26498,58.70271
1721991,267.3172,326.61,53.19709,58.51873
1722007,266.5219,323.9015,53.11516,58.30584
1722024,265.5564,321.372,53.01529,58.10469
1722041,264.1622,318.7213,52.87025,57.89142
1722057,263.1284,316.5408,52.76207,57.71407
1722073,261.9174,314.2375,52.63466,57.52483
1722091,260.9826,312.5784,52.5358,57.38728
1722107,260.3248,311.054,52.46597,57.25999
1722124,259.8705,309.4744,52.41761,57.12715
1722142,259.489,308.1498,52.37691,57.01502
1722158,259.4633,307.1593,52.37418,56.93073
1722173,259.5144,306.2415,52.37963,56.85228
1722191,259.8551,305.2087,52.41597,56.7636
1722210,260.7524,304.9017,52.51139,56.73716
1722227,261.642,304.4279,52.60559,56.69629
1722242,262.6288,304.0358,52.70961,56.66239
1722258,263.4518,303.6561,52.79597,56.62951
1722274,263.7947,303.1571,52.83186,56.5862
1722291,263.9113,302.5304,52.84405,56.53169
1722308,264.1239,301.4399,52.86625,56.43643
1722325,264.5885,299.9946,52.9147,56.30945
1722342,264.9991,298.6765,52.95743,56.19291
1722364,265.9165,297.4333,53.0526,56.08233
1722377,266.4597,296.5267,53.10874,56.0013
1722392,266.9625,295.3781,53.16059,55.89814
1722409,267.877,294.2321,53.25457,55.79466
1722425,269.3597,292.9321,53.40606,55.67661
1722442,270.588,291.7856,53.53074,55.57191
1722459,271.6602,290.6765,53.63898,55.47009
1722475,272.4776,289.1954,53.72113,55.33327
1722493,273.0126,287.903,53.77473,55.21313
1722509,273.3464,287.0119,53.8081,55.12986
1722527,273.6109,286.4719,53.8345,55.07923
1722544,273.8604,285.5724,53.85938,54.99461
1722561,273.6536,284.7905,53.83876,54.92076
1722577,273.1966,284.2679,53.79313,54.87125
1722594,272.7824,283.7208,53.75168,54.81929
1722612,272.6605,283.2022,53.73947,54.76991
1722629,272.5677,282.7628,53.73017,54.72798
1722646,272.3536,282.5049,53.70869,54.70333
1722661,272.1206,281.9221,53.6853,54.6475
1722676,271.6577,281.0359,53.63874,54.56233
1722693,270.7245,280.5573,53.54455,54.51619
1722712,269.4679,280.3876,53.41707,54.4998
1722729,268.0697,280.214,53.27432,54.48302
1722746,266.1102,279.7872,53.07263,54.44172
1722762,264.3959,279.3868,52.89463,54.40289
1722778,262.5838,279.3182,52.70487,54.39623
1722794,260.4897,279.5023,52.4835,54.4141
1722811,258.5978,279.7592,52.28157,54.43901
1722827,256.6384,280.2564,52.07047,54.48712
1722844,254.5503,281.1671,51.8433,54.57496
1722863,252.8902,282.0369,51.66104,54.65852
1722878,251.5051,282.7496,51.50785,54.72672
1722893,250.0499,283.7384,51.34577,54.82096
1722911,248.4821,284.8816,51.16986,54.92938
1722931,246.9541,285.9532,50.99713,55.03048
1722947,245.4759,286.6122,50.82878,55.09239
1722962,244.0294,287.6843,50.66287,55.19272
1722977,242.3765,288.266,50.47183,55.24694
1722994,240.5274,288.9163,50.25627,55.30739
1723012,238.567,288.9254,50.02559,55.30824
1723030,237.3172,288.8349,49.87735,55.29984
1723046,236.1308,288.7418,49.73579,55.29119
1723063,235.2874,288.531,49.63465,55.2716
1723079,234.7924,288.6094,49.5751,55.27889
1723092,234.4422,288.5637,49.53288,55.27464
1723110,234.3505,288.4685,49.52181,55.26579
1723128,234.9929,288.1873,49.59925,55.23962
1723144,235.7051,287.8353,49.6848,55.20681
1723162,236.6216,287.6137,49.79445,55.18613
1723178,237.5979,287.533,49.91073,55.17859
1723194,238.6353,287.3377,50.03366,55.16034
1723214,239.7029,287.4936,50.15953,55.17492
1723227,240.5821,287.602,50.26267,55.18504
1723243,241.0779,287.817,50.32065,55.20511
1723262,241.3631,287.9852,50.35394,55.22079
1723278,241.4536,288.1282,50.36449,55.23412
1723295,241.6469,288.2354,50.38701,55.24409
1723310,241.7804,288.244,50.40256,55.2449
1723327,241.6397,288.2107,50.38618,55.24179
1723344,241.4537,288.295,50.3645,55.24965
1723361,241.2333,288.4692,50.33879,55.26586
1723377,241.2222,288.5651,50.3375,55.27477
1723393,241.4543,288.6987,50.36457,55.28719
1723410,242.1274,288.8119,50.4429,55.2977
1723429,242.9052,288.879,50.53311,55.30392
1723446,243.9562,288.6977,50.65444,55.28709
1723461,244.8597,288.5912,50.75825,55.27719
1723477,245.8158,288.4333,50.8676,55.26251
1723493,247.0571,288.407,51.00881,55.26007
1723511,248.2597,288.2856,51.1448,55.24878
1723530,249.0592,288.1513,51.23478,55.23627
1723544,249.8931,287.9969,51.32824,55.22188
1723561,250.6694,287.9372,51.41491,55.21631
1723576,251.2822,287.942,51.48309,55.21676
1723593,251.8445,287.9481,51.54548,55.21733
1723611,252.4628,287.8976,51.61388,55.21262
1723631,253.0058,287.9425,51.67378,55.2168
1723648,253.4647,288.0091,51.72428,55.22301
1723662,254.0125,288.0011,51.78442,55.22227
1723681,254.6134,287.9507,51.8502,55.21758
1723696,255.3018,287.7877,51.92533,55.20237
1723711,256.2843,287.3654,52.03212,55.16293
1723729,257.6116,287.2322,52.17558,55.15047
1723745,259.4135,287.0648,52.36885,55.13482
1723762,261.5407,287.1585,52.59488,55.14359
1723778,263.325,287.1677,52.78268,55.14444
1723794,265.4657,287.2364,53.00589,55.15086
1723812,267.8925,287.2507,53.25615,55.1522
1723832,270.2771,287.2384,53.49925,55.15105
1723846,272.7223,287.2581,53.74566,55.1529
1723862,274.8954,287.3373,53.96226,55.1603
1723876,277.2129,287.5585,54.19079,55.18098
1723893,280.0197,287.8963,54.46423,55.21251
1723912,282.6624,288.2897,54.71839,55.24916
1723929,285.517,288.7101,54.98938,55.28824
1723945,288.3079,289.061,55.25085,55.32081
1723962,291.3594,289.1591,55.53284,55.32991
1723979,294.3784,288.9458,55.8079,55.31013
1723995,297.5658,288.7547,56.09415,55.29239
1724013,300.425,288.5229,56.34736,55.27084
1724029,303.3489,287.8593,56.60286,55.20905
1724044,306.4538,287.423,56.87045,55.16831
1724062,309.0836,286.9637,57.09414,55.12535
1724078,311.526,286.6173,57.2995,55.09288
1724094,314.1927,286.18,57.52113,55.05181
1724112,316.42,285.7698,57.70419,55.01321
1724128,318.3306,285.4641,57.85977,54.98439
1724144,320.2926,285.2931,58.01815,54.96826
1724162,322.1927,285.2069,58.1702,54.96012
1724178,324.9089,285.4791,58.38533,54.98581
1724216,327.7881,285.7912,58.61053,55.01522
1724233,329.5887,285.9683,58.74992,55.03189
1724247,330.8116,286.0211,58.84394,55.03686
1724262,332.227,285.7793,58.95214,55.01411
1724275,333.608,285.4355,59.05706,54.9817
1724287,335.259,284.9949,59.18166,54.94009
1724300,337.0471,284.5063,59.31558,54.89384
1724312,338.9823,284.1439,59.45934,54.85948
1724330,340.2886,284.1311,59.55569,54.85827
1724347,341.4207,284.2302,59.63876,54.86768
1724368,342.6798,284.3884,59.73066,54.88268
1724387,343.3394,284.5356,59.7786,54.89663
1724396,343.8096,284.6631,59.81269,54.9087
1724414,344.2702,284.8097,59.84602,54.92258
1724429,344.3828,284.9639,59.85416,54.93716
1724448,344.5425,285.0359,59.8657,54.94396
1724464,344.6307,284.9726,59.87207,54.93798
1724480,344.6804,284.881,59.87565,54.92932
1724495,344.5988,284.7108,59.86976,54.91322
1724512,344.6433,284.5298,59.87297,54.89608
1724532,344.8884,284.3528,59.89065,54.87931
1724549,344.9297,284.3036,59.89363,54.87464
1724564,344.8066,284.2808,59.88475,54.87247
1724581,344.7636,284.3202,59.88165,54.87621
1724599,344.8023,284.2851,59.88444,54.87288
1724614,344.8376,284.2123,59.88699,54.86598
1724633,344.7283,284.127,59.87911,54.85788
1724651,344.621,284.1733,59.87136,54.86228
1724663,344.6038,284.1759,59.87012,54.86252
1724680,344.6081,284.1917,59.87043,54.86402
1724696,344.4753,284.1279,59.86084,54.85797
1724716,344.3505,284.0977,59.85183,54.8551
1724730,344.2536,283.9377,59.84483,54.8399
1724747,344.2121,283.8247,59.84182,54.82917
1724764,344.1014,283.7158,59.83382,54.81881
1724779,343.9461,283.5861,59.82258,54.80648
1724795,343.8008,283.5084,59.81206,54.79908
1724813,343.7005,283.5067,59.80479,54.79892
1724829,343.5886,283.457,59.79668,54.79418
1724846,343.4758,283.4356,59.7885,54.79215
1724862,343.3859,283.3887,59.78198,54.78768
1724878,343.3055,283.3488,59.77614,54.78389
1724894,343.1957,283.4144,59.76817,54.79013
1724912,343.1652,283.4117,59.76595,54.78987
1724929,343.1563,283.4174,59.76531,54.79041
1724945,343.1496,283.4692,59.76482,54.79535
1724962,343.2376,283.4991,59.77121,54.79819
1724979,343.3048,283.5923,59.77609,54.80707
1724994,343.3334,283.6563,59.77816,54.81316
1725011,343.3436,283.7378,59.77891,54.8209
1725028,343.363,283.8046,59.78032,54.82726
1725044,343.4261,283.9028,59.78489,54.83659
1725061,343.4253,283.6852,59.78484,54.81591
1725079,343.4438,283.6628,59.78618,54.81377
1725094,343.3744,283.6603,59.78114,54.81353
1725111,343.2445,283.649,59.77171,54.81245
1725133,343.1438,283.5946,59.7644,54.80729
1725147,342.9292,283.5489,59.7488,54.80293
1725164,342.4063,283.3832,59.71074,54.78716
1725182,341.7106,283.1525,59.65996,54.76517
1725199,340.6943,282.8902,59.58551,54.74014
1725214,339.0852,282.5663,59.46695,54.7092
1725229,337.2928,282.259,59.3339,54.6798
1725247,335.4497,281.7954,59.19599,54.63535
1725264,333.0731,281.1742,59.0165,54.57565
1725280,330.8064,280.5715,58.84355,54.51756
1725296,328.5338,279.9951,58.6684,54.46185
1725317,325.6768,279.3608,58.44567,54.40036
1725331,323.3407,278.9458,58.26144,54.36004
1725345,320.647,278.6873,58.04661,54.33487
1725364,318.2742,278.4163,57.8552,54.30847
1725381,316.2123,277.9864,57.6872,54.26651
1725394,314.128,277.3371,57.51578,54.20297
1725411,312.1245,276.5911,57.34948,54.12971
1725427,309.8659,275.6746,57.16016,54.03938
1725445,307.9239,274.6702,56.99583,53.93991
1725462,306.0245,273.6279,56.83368,53.83619
1725478,304.143,272.6044,56.67167,53.73385
1725495,302.2769,271.3625,56.50959,53.60899
1725513,300.6756,270.1857,56.36939,53.48998
1725528,299.2252,268.8411,56.24151,53.35319
1725545,297.5909,267.5402,56.09639,53.22
1725563,296.069,266.2859,55.96026,53.0908
1725579,294.6831,264.9265,55.83545,52.94988
1725595,292.8621,263.4634,55.67023,52.79718
1725616,291.3922,262.143,55.53585,52.65846
1725632,289.7916,260.5892,55.38846,52.49406
1725652,288.5989,258.964,55.27791,52.3208
1725669,287.2832,257.2846,55.15525,52.14031
1725679,286.0545,255.2707,55.04001,51.92194
1725696,284.8441,253.4418,54.92583,51.72176
1725714,283.7694,251.822,54.82391,51.54298
1725731,282.578,249.9606,54.71032,51.33578
1725748,281.9796,249.0607,54.65302,51.23494
1725762,281.1628,247.9699,54.57455,51.11211
1725779,280.434,247.0936,54.50428,51.01295
1725795,279.6919,246.2298,54.43248,50.91479
1725814,279.1424,245.4413,54.37915,50.82483
1725830,278.8,244.7591,54.34585,50.74671
1725848,278.414,244.1388,54.30824,50.67546
1725870,278.0919,243.8123,54.27682,50.63786
1725882,277.686,243.5508,54.23713,50.60771
1725897,277.3583,243.4195,54.20504,50.59256
1725915,277.1367,243.5433,54.18332,50.60685
1725929,276.7563,243.6282,54.14597,50.61664
1725946,276.4147,243.8,54.11237,50.63644
1725966,276.1988,243.9331,54.09109,50.65178
1725982,276.21,243.7776,54.0922,50.63387
1725997,276.2214,242.8799,54.09332,50.53017
1726013,275.8785,243.257,54.05951,50.57379
1726030,276.7725,243.7939,54.14756,50.63574
1726048,277.0323,243.6636,54.17307,50.62072
1726064,277.3338,243.7729,54.20264,50.63332
1726081,277.5629,243.6341,54.22509,50.61732
1726098,277.8582,243.4977,54.25397,50.60159
1726114,278.1675,243.4049,54.2842,50.59087
1726132,278.4407,243.3059,54.31085,50.57943
1726150,278.5507,243.1967,54.32158,50.56683
1726165,278.6555,243.1427,54.33179,50.56058
1726182,278.7329,243.1233,54.33932,50.55834
1726200,278.7101,243.11,54.3371,50.5568
1726216,278.7092,243.0593,54.33701,50.55093
1726232,278.7157,243.0622,54.33764,50.55127
1726257,278.7599,243.0463,54.34195,50.54943
1726271,278.826,243.0504,54.34838,50.54991
1726282,278.9746,243.0624,54.36284,50.55129
1726299,279.1148,243.1081,54.37647,50.55658
1726315,279.2705,243.0795,54.3916,50.55327
1726332,279.4715,243.0719,54.41111,50.55239
