Time Stamp(ms),Intersection,,Angle,
,x,y,x,y
1319192,358.0486,265.3773,60.813,52.99671
1319212,358.145,265.9385,60.81956,53.05488
1319229,358.2803,266.1909,60.82878,53.08097
1319250,358.6305,266.2438,60.8526,53.08644
1319268,358.7939,266.3055,60.8637,53.09282
1319288,359.2913,266.4712,60.89744,53.10993
1319306,359.6728,266.4674,60.92327,53.10954
1319325,360.1514,266.5441,60.95562,53.11745
1319343,360.6934,266.564,60.99218,53.11951
1319362,361.1729,266.6855,61.02445,53.13205
1319382,361.6204,266.8259,61.0545,53.14652
1319401,362.3568,267.0992,61.10384,53.17467
1319421,363.088,267.6235,61.15268,53.22856
1319440,363.6676,268.1099,61.19128,53.27843
1319459,364.226,268.3862,61.22839,53.30671
1319477,364.4421,268.8087,61.24273,53.34989
1319501,364.5505,269.2424,61.24991,53.39411
1319520,364.5386,269.6462,61.24912,53.43521
1319535,364.5944,270.1442,61.25282,53.48577
1319557,364.5662,270.4906,61.25095,53.52089
1319575,364.5108,270.6574,61.24728,53.53776
1319593,364.4492,270.9315,61.24319,53.56548
1319617,364.542,271.1535,61.24935,53.5879
1319632,364.6832,271.3853,61.2587,53.61129
1319651,364.7968,271.7331,61.26623,53.64632
1319674,364.9554,272.1985,61.27672,53.69313
1319692,365.1816,272.6286,61.29168,53.73627
1319711,365.4188,272.8849,61.30735,53.76194
1319727,365.5171,273.2606,61.31384,53.79952
1319747,365.4751,273.4749,61.31107,53.82093
1319767,365.6128,273.6201,61.32016,53.83541
1319789,365.7838,273.9244,61.33144,53.86576
1319807,366.1116,274.1763,61.35304,53.89083
1319826,366.7743,274.3554,61.39661,53.90865
1319844,367.3633,274.5674,61.43523,53.92971
1319861,368.2302,274.763,61.49191,53.94913
1319883,369.5065,275.0602,61.57498,53.9786
1319901,371.3302,275.231,61.69291,53.99551
1319921,373.0851,275.5008,61.80554,54.0222
1319940,374.9515,275.7397,61.92443,54.04581
1319959,376.6919,275.919,62.03448,54.0635
1319976,378.6804,276.3505,62.15923,54.10604
1319995,380.8143,276.5229,62.29198,54.12301
1320015,382.7918,276.8258,62.41396,54.15279
1320035,384.6962,277.1491,62.5305,54.18453
1320055,386.6098,277.5687,62.64669,54.22565
1320075,388.7639,278.2509,62.7764,54.29234
1320093,390.7555,278.9453,62.89531,54.35999
1320113,392.6806,280.0153,63.00936,54.46381
1320131,394.9415,281.1139,63.14216,54.56984
1320150,397.4184,282.2535,63.28627,54.67926
1320170,399.8464,283.4012,63.42614,54.78887
1320190,402.0613,284.3865,63.55257,54.8825
1320209,404.2855,285.4333,63.6784,54.98149
1320227,406.5584,286.3442,63.80585,55.06724
1320245,409.1215,287.2348,63.9482,55.15071
1320263,411.8578,288.2891,64.09858,55.2491
1320285,414.8085,289.22,64.25895,55.33555
1320303,417.7716,290.3038,64.41814,55.43575
1320324,421.1734,291.4127,64.59865,55.53772
1320343,424.2975,292.6518,64.76234,55.65106
1320359,427.1784,293.7715,64.91155,55.75291
1320377,429.7796,294.8699,65.04486,55.85232
1320395,431.8641,296.0559,65.15073,55.95908
1320415,433.6966,297.2097,65.24313,56.06238
1320434,435.5101,298.2063,65.33392,56.15117
1320454,437.718,299.6067,65.44362,56.27523
1320473,440.8553,300.812,65.59794,56.38138
1320493,443.5744,301.8122,65.73021,56.46901
1320524,446.4604,303.5587,65.86914,56.62106
1320541,448.3169,304.752,65.95773,56.72426
1320555,450.204,305.6367,66.04715,56.8004
1320566,452.8015,307.1891,66.1692,56.93327
1320586,455.1192,308.4243,66.27714,57.03831
1320605,457.4487,309.4973,66.38469,57.12909
1320625,459.669,310.365,66.48635,57.20216
1320642,461.8788,311.5143,66.58672,57.29852
1320661,463.8217,312.3008,66.67429,57.36417
1320678,465.9507,313.0845,66.76954,57.42935
1320696,468.1226,313.8965,66.86596,57.49664
1320719,469.7477,314.2503,66.93761,57.52588
1320737,471.6891,314.3856,67.02267,57.53705
1320757,473.5049,314.578,67.10167,57.55293
1320776,474.7527,315.0249,67.15567,57.58974
1320793,475.5933,315.3393,67.19192,57.6156
1320811,476.6714,315.3962,67.23824,57.62027
1320831,477.4324,315.4432,67.27083,57.62413
1320850,477.5384,315.6069,67.27536,57.63758
1320870,477.6332,315.4042,67.27941,57.62093
1320890,477.6147,315.1605,67.27862,57.60089
1320908,477.2379,314.8859,67.2625,57.5783
1320927,476.7966,314.6699,67.24361,57.5605
1320944,476.3864,314.6097,67.22601,57.55555
1320963,475.7013,314.6188,67.19656,57.55629
1320982,474.8687,314.3468,67.16068,57.53385
1321001,474.3343,314.0869,67.13759,57.51239
1321021,474.1268,313.9104,67.12862,57.49779
1321040,473.9707,313.7625,67.12186,57.48555
1321059,473.5123,313.4512,67.102,57.45977
1321076,473.1543,313.2369,67.08646,57.442
1321094,472.905,312.8977,67.07562,57.41384
1321112,473.0419,313.0163,67.08157,57.42369
1321134,473.541,313.149,67.10324,57.4347
1321153,473.5813,313.2193,67.10499,57.44054
1321171,473.559,313.087,67.10402,57.42955
1321191,473.0951,313.0929,67.08389,57.43005
1321209,472.8108,312.8857,67.07153,57.41283
1321228,472.7833,312.8074,67.07034,57.40633
1321246,472.7615,312.7993,67.06939,57.40566
1321264,472.6453,312.7769,67.06433,57.40379
1321284,472.51,312.8235,67.05845,57.40767
1321303,472.687,313.1686,67.06615,57.43633
1321321,472.6654,313.2732,67.06521,57.44501
1321342,472.536,313.2571,67.05958,57.44368
1321360,472.3023,313.327,67.0494,57.44947
1321377,471.6684,313.1181,67.02176,57.43214
1321395,471.0689,312.9012,66.99555,57.41413
1321413,470.4918,312.5049,66.97028,57.38116
1321433,469.9341,312.1823,66.94581,57.35429
1321454,469.1019,311.4075,66.90919,57.28959
1321474,468.2441,310.2544,66.87134,57.19286
1321494,466.7629,308.7723,66.80569,57.0678
1321521,465.6137,307.6488,66.75451,56.97243
1321535,464.3782,306.4132,66.69926,56.86697
1321563,462.8357,304.8752,66.62992,56.73488
1321579,461.9423,303.9044,66.58958,56.65102
1321589,460.6628,302.539,66.53159,56.53243
1321605,459.016,300.8791,66.45654,56.38726
1321629,457.6713,299.5093,66.39492,56.26663
1321646,456.0212,298.1817,66.31889,56.14898
1321662,454.0131,296.9404,66.22575,56.03832
1321679,451.426,295.729,66.10472,55.92971
1321698,448.5708,294.4761,65.9698,55.81674
1321718,445.9271,293.2558,65.84358,55.70607
1321737,442.5058,291.6736,65.67839,55.56165
1321760,439.3726,290.4499,65.52523,55.44921
1321777,435.6158,288.9449,65.33919,55.31005
1321794,431.6704,287.6143,65.14094,55.18618
1321814,428.086,286.35,64.95821,55.06779
1321833,423.761,285.0228,64.73437,54.94273
1321852,419.5642,283.6711,64.51356,54.81456
1321872,415.4162,282.5942,64.29175,54.71187
1321892,411.1605,281.7832,64.06041,54.63418
1321910,407.0873,281.2495,63.83534,54.58289
1321932,402.9374,281.088,63.60226,54.56735
1321947,398.8999,281.4343,63.37178,54.60067
1321969,394.5793,282.0206,63.12096,54.65695
1321985,390.1267,282.6303,62.85788,54.71531
1322007,385.6898,283.1906,62.59094,54.7688
1322026,381.8587,283.5535,62.35653,54.80337
1322045,378.3291,283.6842,62.13727,54.81581
1322064,375.2126,283.7553,61.941,54.82257
1322082,372.1367,283.998,61.74477,54.84564
1322102,369.2435,284.2568,61.5579,54.87019
1322121,366.2287,284.837,61.36074,54.92516
1322141,363.6648,285.1365,61.1911,54.95348
1322161,361.5013,285.2225,61.04651,54.96159
1322184,359.7639,285.2418,60.92944,54.96342
1322198,358.3033,285.1851,60.83035,54.95806
1322216,356.9078,285.0908,60.73509,54.94915
1322236,355.9473,285.1595,60.6692,54.95565
1322256,355.2403,285.4746,60.62052,54.98539
1322276,354.773,285.9375,60.58828,55.029
1322296,354.4778,286.6442,60.56787,55.0954
1322315,353.9375,287.4486,60.53045,55.17071
1322334,353.1574,288.1038,60.47626,55.23184
1322354,352.0329,289.0396,60.39785,55.31883
1322373,350.9041,289.6821,60.31875,55.37834
1322391,349.9804,290.0477,60.25374,55.41212
1322411,349.3686,290.208,60.21053,55.42691
1322429,348.9582,290.2901,60.18148,55.43448
1322450,348.632,290.3485,60.15836,55.43987
1322468,348.1444,290.4915,60.12374,55.45304
1322485,347.636,290.6724,60.08756,55.4697
1322504,347.2781,290.7876,60.06204,55.4803
1322524,346.8651,290.9471,60.03255,55.49497
1322544,346.2084,291.1878,59.98554,55.51709
1322563,345.3218,291.5447,59.92187,55.54984
1322582,344.126,291.7593,59.83559,55.5695
1322598,342.7018,292.1236,59.73226,55.60283
1322623,340.4341,292.3285,59.56639,55.62156
1322642,338.1077,292.0422,59.39452,55.59539
1322659,335.5411,292.039,59.20285,55.59509
1322677,332.312,291.9207,58.95862,55.58427
1322699,329.5215,292.1272,58.74474,55.60316
1322715,327.0411,292.485,58.55238,55.63585
1322732,324.733,292.9088,58.37148,55.67449
1322752,322.5078,293.2941,58.19529,55.70956
1322773,320.4709,293.4809,58.03247,55.72653
1322793,318.5759,293.6224,57.87965,55.73938
1322812,316.8966,293.7841,57.74313,55.75406
1322831,315.9802,293.8083,57.66819,55.75626
1322850,315.1332,293.9056,57.59866,55.76508
1322866,314.1739,293.9618,57.51957,55.77018
1322886,313.6641,293.9102,57.47741,55.7655
1322907,313.4991,293.9656,57.46374,55.77052
1322926,313.5299,293.79,57.46629,55.75459
1322946,313.5558,293.7384,57.46843,55.74992
1322966,313.6991,293.725,57.48031,55.7487
1322984,313.8825,293.7312,57.49548,55.74926
1323002,314.2205,293.6221,57.52342,55.73936
1323024,314.4381,293.5778,57.54139,55.73533
1323044,314.5086,293.6304,57.5472,55.74011
1323064,314.4405,293.6666,57.54158,55.7434
1323082,314.5124,293.8359,57.54752,55.75876
1323100,314.583,293.886,57.55334,55.7633
1323118,314.8148,293.888,57.57245,55.76348
1323137,314.9228,293.9402,57.58133,55.76822
1323156,314.8438,293.9134,57.57483,55.76579
1323175,314.7011,294.0614,57.56308,55.77921
1323195,314.5533,294.2637,57.55089,55.79753
1323215,314.3182,294.5166,57.53149,55.8204
1323234,314.0677,294.6757,57.5108,55.83478
1323252,313.8744,294.9275,57.49481,55.85751
1323270,313.7022,295.183,57.48056,55.88056
1323290,313.6826,295.4002,57.47894,55.90013
1323308,313.7235,295.6176,57.48233,55.91969
1323330,313.7719,295.8544,57.48633,55.94098
1323349,314.1169,295.7287,57.51486,55.92968
1323369,314.6127,295.7722,57.55579,55.9336
1323386,315.2382,295.7009,57.60728,55.92719
1323405,315.8283,295.8269,57.65574,55.93851
1323423,316.3809,295.8378,57.701,55.93949
1323443,316.9495,295.7747,57.74744,55.93382
1323463,317.4323,295.7374,57.78679,55.93047
1323483,317.8938,295.4373,57.82433,55.90347
1323501,318.23,295.304,57.85161,55.89147
1323518,318.6484,295.0938,57.88552,55.87252
1323537,319.123,294.8127,57.92391,55.84715
1323557,319.373,294.4762,57.94409,55.81675
1323577,319.5806,294.1634,57.96083,55.78844
1323596,320.11,293.653,58.00346,55.74216
1323615,320.7517,293.2853,58.055,55.70876
1323637,321.2168,293.1117,58.09227,55.69296
1323652,321.7281,293.0465,58.13314,55.68703
1323671,322.1847,292.9387,58.16956,55.67722
1323691,322.6305,292.8684,58.20505,55.67081
1323711,323.0824,292.6476,58.24095,55.65068
1323730,323.4079,292.4061,58.26677,55.62864
1323749,323.6595,292.2389,58.28669,55.61337
1323768,323.9872,292.2891,58.31262,55.61795
1323786,324.3759,292.3469,58.34332,55.62324
1323805,324.7711,292.2673,58.37448,55.61596
1323826,325.1485,292.1999,58.40418,55.6098
1323845,325.5234,292.1204,58.43364,55.60254
1323865,325.9748,292.0781,58.46904,55.59867
1323884,326.6288,291.9236,58.5202,55.58453
1323902,327.5145,291.8555,58.58926,55.5783
1323921,328.4864,291.8666,58.66472,55.57932
1323939,329.3602,291.9188,58.73229,55.5841
1323957,330.6196,291.957,58.82922,55.58759
1323981,331.9073,291.8401,58.92776,55.57689
1323999,333.2611,291.6986,59.03076,55.56393
1324016,334.6918,291.3337,59.13895,55.53048
1324035,336.0666,290.961,59.24227,55.49625
1324054,337.4124,290.5645,59.34281,55.45977
1324074,338.6428,290.47,59.4342,55.45107
1324094,339.749,290.4999,59.51596,55.45382
1324111,340.8018,290.5178,59.5934,55.45547
1324132,341.6118,290.6224,59.65274,55.4651
1324151,342.3149,290.8054,59.70408,55.48194
1324169,342.9678,290.9057,59.75161,55.49117
1324187,343.9142,291.1449,59.82027,55.51315
1324207,344.8435,291.3206,59.88741,55.52928
1324227,345.8507,291.3961,59.95988,55.53621
1324248,346.9483,291.279,60.0385,55.52546
1324267,347.9421,290.8832,60.10935,55.48909
1324285,348.6787,290.4797,60.16168,55.45196
1324304,349.0333,290.33,60.18681,55.43816
1324322,349.2724,290.2728,60.20373,55.43288
1324341,349.4265,290.3316,60.21463,55.43831
1324361,349.7309,290.1901,60.23613,55.42526
1324380,350.0836,290.0589,60.26101,55.41315
1324399,350.3836,289.8369,60.28215,55.39264
1324417,350.7845,289.765,60.31035,55.38601
1324437,351.2296,289.6163,60.3416,55.37225
1324454,351.8459,289.4723,60.38477,55.35892
1324474,352.5353,289.3381,60.43293,55.3465
1324494,353.3262,289.1004,60.488,55.32447
1324514,354.2109,288.7425,60.54939,55.29125
1324532,355.2578,288.4352,60.62173,55.2627
1324551,356.3188,288.1105,60.69471,55.23246
1324569,357.7623,288.0684,60.79348,55.22855
1324589,358.7957,288.1149,60.86382,55.23287
1324608,359.5632,288.1888,60.91586,55.23976
1324632,360.5878,288.2094,60.98506,55.24167
1324650,361.7997,288.3625,61.06653,55.25592
1324668,362.7951,288.4822,61.13313,55.26707
1324685,363.5771,288.6137,61.18526,55.27929
1324705,364.3341,288.8215,61.23556,55.29859
1324725,365.1826,289.0767,61.29174,55.32227
1324746,365.9737,289.2276,61.34395,55.33626
1324766,366.6021,289.537,61.3853,55.36491
1324784,367.0635,289.7812,61.41559,55.3875
1324802,367.5541,289.8793,61.44773,55.39656
1324822,368.0421,289.8513,61.47963,55.39397
1324837,368.6675,289.8701,61.52043,55.39571
1324857,369.143,289.8837,61.55137,55.39697
1324878,369.5592,289.8304,61.5784,55.39204
1324898,370.1089,289.8896,61.61404,55.39751
1324918,370.6531,289.8122,61.64923,55.39036
1324935,371.199,289.7972,61.68446,55.38898
1324955,371.834,289.9459,61.72533,55.40271
1324973,372.4391,290.0158,61.76418,55.40917
1324992,372.922,290.2534,61.79511,55.43109
1325012,373.4944,290.3371,61.83169,55.43881
1325033,374.1433,290.4423,61.87307,55.44851
1325055,374.7012,290.4317,61.90855,55.44753
1325073,375.1484,290.4108,61.93692,55.44561
1325086,375.6101,290.2057,61.96617,55.4267
1325106,376.0717,290.1418,61.99535,55.4208
1325125,376.3227,289.4466,62.0112,55.35655
1325151,376.7726,289.2073,62.03956,55.33438
1325167,377.0672,289.338,62.0581,55.34649
1325186,377.1512,289.1914,62.06338,55.3329
1325204,377.0793,289.3164,62.05886,55.34449
1325222,377.0386,289.2925,62.0563,55.34228
1325242,377.3042,289.4604,62.073,55.35783
1325261,377.5793,289.5952,62.09028,55.3703
1325285,377.6609,289.5766,62.0954,55.36858
1325301,377.6752,289.6019,62.0963,55.37092
1325321,377.9023,289.4655,62.11053,55.3583
1325340,378.1053,289.3294,62.12326,55.34569
1325356,378.3116,289.196,62.13617,55.33334
1325374,378.6255,288.7691,62.1558,55.29372
1325397,378.9545,288.3853,62.17635,55.25805
1325416,379.5833,287.6276,62.21554,55.18743
1325435,380.4124,286.6355,62.26707,55.09459
1325454,381.2585,285.4472,62.31946,54.9828
1325473,382.1115,284.4435,62.3721,54.88789
1325490,383.0497,283.6105,62.42979,54.80879
1325510,383.899,282.4064,62.48182,54.6939
1325531,384.5935,281.1026,62.52423,54.56876
1325550,385.1929,279.672,62.56074,54.43055
1325568,385.7736,278.5033,62.59602,54.31695
1325587,386.2633,277.0711,62.62571,54.17688
1325606,386.534,275.5282,62.6421,54.02491
1325624,386.433,273.9136,62.63599,53.86468
1325643,386.2902,271.8602,62.62735,53.65912
1325666,386.4105,270.3172,62.63462,53.50331
1325685,386.3896,268.3968,62.63336,53.3078
1325706,386.1894,266.8783,62.62123,53.15192
1325723,385.8322,265.5185,62.59958,53.01136
1325742,385.6342,264.1445,62.58757,52.8684
1325761,385.8251,262.4563,62.59915,52.69145
1325781,386.4668,260.5737,62.63803,52.49242
1325800,387.2536,258.8705,62.68557,52.31079
1325817,388.1856,257.3089,62.74168,52.14294
1325837,388.82,255.7072,62.77976,51.96945
1325855,389.2797,254.6658,62.80729,51.85593
1325873,389.963,253.3303,62.84811,51.7095
1325894,390.7684,251.9465,62.89608,51.55677
1325914,391.6289,250.8408,62.94716,51.434
1325933,392.5372,249.6585,63.00089,51.30198
1325953,393.7156,248.7799,63.0703,51.20338
1325973,394.7452,248.1285,63.13068,51.13
1325989,395.7939,247.6254,63.19191,51.07317
1326008,397.0658,247.5495,63.26584,51.06459
1326027,398.2238,247.2755,63.33282,51.03356
1326047,399.2748,246.9858,63.39334,51.00073
1326067,400.5559,246.6054,63.46677,50.95752
1326086,401.9164,246.1791,63.54433,50.90902
1326104,403.4203,245.8923,63.62959,50.87632
1326123,404.5977,245.8833,63.69598,50.87531
1326142,405.5063,245.9686,63.747,50.88503
1326161,406.0976,245.9832,63.7801,50.88669
1326181,406.5312,246.0356,63.80433,50.89267
1326201,406.7908,245.994,63.81881,50.88793
1326221,406.7301,245.7275,63.81543,50.85752
1326239,406.4568,245.7039,63.80017,50.85483
1326255,405.9659,245.6615,63.77274,50.84998
1326274,405.465,245.7356,63.74468,50.85845
1326294,404.8879,245.5637,63.7123,50.83881
1326314,404.5189,245.5118,63.69154,50.83289
1326334,404.3297,245.3787,63.68089,50.81767
1326354,404.0564,245.3713,63.66549,50.81682
1326373,403.97,245.4719,63.66062,50.82832
1326390,403.9684,245.5843,63.66053,50.84118
1326408,403.8908,245.5761,63.65615,50.84024
1326428,403.7734,245.694,63.64953,50.85369
1326448,403.5917,245.8143,63.63927,50.86743
1326469,403.3975,245.8199,63.6283,50.86807
1326488,403.2218,245.8018,63.61836,50.866
1326506,402.9344,245.7998,63.60209,50.86577
1326525,402.5402,245.9794,63.57976,50.88626
1326543,402.1822,245.9501,63.55944,50.88292
1326562,401.8009,245.899,63.53776,50.87709
1326587,401.5288,245.8145,63.52228,50.86745
1326604,401.3719,245.7232,63.51334,50.85704
1326622,401.1406,245.7395,63.50015,50.85889
1326644,400.9236,245.7475,63.48777,50.8598
1326659,400.9241,245.7457,63.4878,50.8596
1326677,401.0188,245.815,63.49321,50.86751
1326699,401.1225,246.0728,63.49912,50.89691
1326716,401.2582,246.4203,63.50686,50.93647
1326736,401.4912,246.8175,63.52014,50.98162
1326755,401.7516,247.2908,63.53496,51.0353
1326774,402.0761,247.6439,63.55341,51.07526
1326795,402.1906,248.0048,63.55991,51.11605
1326812,402.3437,248.2521,63.5686,51.14395
1326834,402.3915,248.6514,63.57132,51.18893
1326851,402.577,249.0541,63.58184,51.2342
1326870,402.7653,249.401,63.59251,51.27312
1326889,402.9029,249.6215,63.60032,51.29784
1326907,403.0256,249.8695,63.60726,51.3256
1326926,403.0395,250.054,63.60805,51.34622
1326945,403.137,250.1582,63.61356,51.35788
1326966,403.2582,250.4274,63.62042,51.38792
1326986,403.3177,250.598,63.62378,51.40694
1327005,403.3964,250.9116,63.62823,51.44188
1327024,403.4768,251.1784,63.63278,51.47156
1327042,403.5971,251.4617,63.63958,51.50302
1327060,403.561,251.755,63.63754,51.53556
1327081,403.5681,251.976,63.63794,51.56004
1327099,403.6904,252.3332,63.64484,51.59956
1327117,403.7098,252.685,63.64594,51.63841
1327139,403.7111,252.9927,63.64601,51.67233
1327158,403.633,253.2622,63.6416,51.70201
1327175,403.5979,253.4714,63.63962,51.72502
1327192,403.4599,253.6826,63.63182,51.74822
1327212,403.3397,253.8474,63.62503,51.76631
1327233,403.2333,253.935,63.61901,51.77592
1327253,403.1528,254.0211,63.61446,51.78536
1327272,402.9182,254.0462,63.60118,51.78811
1327291,402.7697,254.1389,63.59276,51.79828
1327308,402.6055,254.2361,63.58346,51.80892
1327327,402.4525,254.3966,63.57478,51.82649
1327347,402.341,254.404,63.56845,51.8273
1327369,402.5523,254.3188,63.58044,51.81798
1327387,402.558,254.1762,63.58077,51.80236
1327407,402.5552,254.0923,63.5806,51.79316
1327427,402.5434,253.9946,63.57994,51.78246
1327445,402.5163,253.7295,63.5784,51.75338
1327465,402.4507,253.5129,63.57468,51.72958
1327484,402.3668,253.2853,63.56992,51.70455
1327505,402.2038,253.0995,63.56067,51.6841
1327524,402.0995,252.8767,63.55474,51.65956
1327542,402.0503,252.7345,63.55194,51.64387
1327561,402.0287,252.5022,63.55071,51.61824
1327580,402.0292,252.3895,63.55074,51.60578
1327599,401.9732,252.2265,63.54756,51.58776
1327620,401.951,251.9955,63.5463,51.5622
1327641,401.8619,251.7471,63.54123,51.53469
1327660,401.7881,251.4184,63.53704,51.49822
1327674,401.7516,251.0513,63.53496,51.45742
1327693,401.571,250.5638,63.52468,51.40313
1327712,401.3252,250.1062,63.51068,51.35207
1327732,401.1452,249.7664,63.50041,51.31406
1327751,400.9045,249.3967,63.48668,51.27265
1327770,400.6766,248.9952,63.47366,51.22759
1327790,400.5664,248.4795,63.46736,51.16958
1327809,400.5505,248.0588,63.46645,51.12215
1327827,400.4774,247.6291,63.46228,51.0736
1327846,400.4026,247.3311,63.458,51.03986
1327866,400.3644,246.9417,63.45581,50.99572
1327885,400.3762,246.5665,63.45649,50.9531
1327905,400.4547,246.2307,63.46098,50.91489
1327925,400.4556,245.8232,63.46103,50.86844
