Time Stamp(ms),Intersection,,Angle,
,x,y,x,y
1252910,330.7281,240.1105,58.83754,50.20741
1252934,330.3217,239.971,58.80634,50.19102
1252964,330.1184,239.8724,58.79071,50.17945
1252997,330.0078,239.9978,58.78219,50.19417
1253037,330.0223,240.0753,58.78331,50.20327
1253070,329.9671,240.0586,58.77907,50.20131
1253099,329.682,240.6232,58.75711,50.26748
1253133,329.3135,240.8628,58.72869,50.29552
1253164,329.4576,240.7762,58.73981,50.28539
1253196,329.9211,240.6965,58.77553,50.27607
1253234,330.3189,240.6391,58.80612,50.26935
1253271,330.8282,240.5863,58.84521,50.26316
1253298,331.8735,240.5223,58.92519,50.25567
1253328,333.2884,240.3289,59.03284,50.23302
1253366,334.6639,239.7801,59.13685,50.16859
1253399,335.9899,239.5095,59.23652,50.13678
1253433,337.3628,239.2473,59.33911,50.1059
1253465,338.7968,239.1855,59.44561,50.09861
1253496,340.5952,239.7538,59.57824,50.1655
1253528,342.5947,240.0903,59.72446,50.20502
1253566,344.5887,240.0742,59.86903,50.20314
1253594,346.4406,240.0818,60.00218,50.20404
1253637,347.3516,239.995,60.06729,50.19385
1253668,347.6335,239.7827,60.08738,50.16891
1253699,348.3326,239.3817,60.13711,50.12173
1253728,349.19,238.965,60.1979,50.07261
1253767,350.05,239.1326,60.25864,50.09237
1253794,351.0458,239.3357,60.3287,50.11631
1253826,351.8068,239.715,60.38203,50.16094
1253861,353.6281,240.2209,60.50898,50.22035
1253896,355.7834,240.5865,60.65793,50.26318
1253932,358.3197,240.6208,60.83146,50.26721
1253967,361.7376,240.1749,61.06237,50.21495
1253994,366.4611,240.1455,61.37603,50.2115
1254028,371.1576,240.2174,61.68179,50.21994
1254061,375.514,240.6973,61.96009,50.27616
1254094,379.238,240.7591,62.19403,50.28339
1254128,383.1907,240.7265,62.43844,50.27957
1254161,386.6467,240.6183,62.64892,50.26691
1254194,389.5767,240.9256,62.82505,50.30285
1254227,392.3996,241.0693,62.99276,50.31964
1254262,394.7604,240.967,63.13157,50.30769
1254296,397.2379,240.725,63.27582,50.2794
1254328,401.0894,240.4756,63.49723,50.2502
1254361,405.1638,240.387,63.72779,50.23982
1254395,409.7556,240.6206,63.98319,50.26718
1254429,414.0774,241.0719,64.21938,50.31995
1254460,418.6684,241.7644,64.46596,50.4007
1254496,422.2779,242.3669,64.65675,50.47071
1254529,425.8059,242.952,64.84067,50.53852
1254560,429.0927,243.4424,65.00979,50.5952
1254595,431.9753,243.716,65.15636,50.62676
1254630,434.4898,243.9134,65.28291,50.64951
1254663,437.2143,244.1541,65.41867,50.67721
1254696,439.239,244.1882,65.51866,50.68114
1254730,440.9449,244.2625,65.60231,50.68968
1254762,441.9033,244.4908,65.64908,50.71592
1254797,442.0303,244.6081,65.65526,50.72939
1254830,442.0201,244.765,65.65476,50.74739
1254865,441.6,244.3649,65.6343,50.70145
1254895,441.5934,243.865,65.63397,50.64393
1254927,441.4863,243.2549,65.62875,50.57355
1254961,441.0952,242.2984,65.60966,50.46276
1254994,440.6879,241.7053,65.58974,50.39381
1255028,440.1816,240.9191,65.56495,50.3021
1255063,439.7451,239.8465,65.54353,50.1764
1255096,438.5711,238.8471,65.48576,50.05869
1255129,434.7753,238.4959,65.2972,50.01717
1255163,429.0456,237.3312,65.00738,49.87902
1255194,422.7378,235.3043,64.68086,49.63669
1255227,417.6473,232.9128,64.4115,49.34763
1255262,414.3242,231.1595,64.23276,49.13353
1255295,411.7877,229.8933,64.09475,48.97775
1255327,410.3354,228.2791,64.01511,48.77774
1255358,410.0417,227.3,63.99895,48.65563
1255392,409.8475,226.6479,63.98825,48.57399
1255428,410.0656,225.7181,64.00027,48.4571
1255459,410.6519,224.7384,64.0325,48.33336
1255493,411.1954,223.5963,64.06232,48.18835
1255524,411.835,222.1809,64.09734,48.00749
1255561,412.3939,220.8424,64.12785,47.83529
1255593,413.1,219.3106,64.16632,47.6368
1255627,413.5756,216.9118,64.19217,47.3229
1255658,414.0094,214.7395,64.2157,47.03539
1255692,414.6107,212.8313,64.24826,46.78025
1255727,415.4764,211.3548,64.295,46.58116
1255760,416.2962,210.1188,64.33911,46.41336
1255793,416.9056,209.3795,64.37181,46.31251
1255825,417.3161,208.8268,64.39379,46.23686
1255859,417.5888,208.2978,64.40837,46.16425
1255892,417.8453,207.5794,64.42207,46.06536
1255928,418.0758,206.9438,64.43438,45.97756
1255960,418.145,206.354,64.43807,45.89584
1255992,418.2049,205.8048,64.44126,45.81953
1256031,418.3764,205.4431,64.45041,45.76916
1256059,418.3135,205.5061,64.44706,45.77794
1256091,418.1811,205.684,64.43999,45.80271
1256122,418.1111,205.9495,64.43626,45.83965
1256158,418.0018,206.2302,64.43044,45.87865
1256190,417.9113,206.5889,64.4256,45.92842
1256224,418.0547,206.91,64.43325,45.97289
1256256,418.1126,207.0911,64.43634,45.99793
1256290,418.3585,207.2013,64.44946,46.01316
1256325,418.5275,207.1768,64.45846,46.00978
1256354,418.6333,207.2771,64.46409,46.02364
1256391,418.6784,207.4942,64.46649,46.0536
1256422,418.5777,207.7816,64.46113,46.09323
1256455,418.4974,208.1257,64.45686,46.1406
1256491,418.416,208.3681,64.45252,46.17392
1256521,418.4525,208.1335,64.45447,46.14167
1256551,418.4363,208.0351,64.4536,46.12813
1256586,418.4083,207.9599,64.4521,46.11778
1256620,418.5036,207.8547,64.45718,46.1033
1256652,418.6501,207.754,64.46499,46.08942
1256684,418.8866,207.59,64.47757,46.06682
1256718,419.1469,207.4327,64.49141,46.04512
1256751,419.3389,207.2987,64.5016,46.02662
1256785,419.4855,207.2332,64.50938,46.01757
1256818,419.595,207.0901,64.51519,45.9978
1256852,419.7053,207.0077,64.52104,45.9864
1256886,419.8316,206.77,64.52773,45.95351
1256920,419.9145,206.6055,64.53213,45.93071
1256952,419.8513,206.5195,64.52878,45.91879
1256985,419.7298,206.2491,64.52234,45.88129
1257018,419.6453,206.0331,64.51786,45.85127
1257051,419.5779,205.9277,64.51428,45.83662
1257086,419.7284,205.7647,64.52226,45.81395
1257120,419.9424,205.5649,64.53361,45.78613
1257153,420.2328,205.3224,64.54897,45.75233
1257186,420.6305,205.3083,64.57,45.75035
1257220,420.8846,205.4133,64.58342,45.765
1257252,421.3093,205.6929,64.60581,45.80396
1257285,422.8521,205.9479,64.68685,45.83944
1257328,428.8679,206.2987,64.99828,45.88817
1257355,436.0712,206.8407,65.36189,45.96329
1257383,443.4922,208.2988,65.72623,46.16439
1257416,449.36,210.1958,66.00723,46.42384
1257450,454.4395,211.9461,66.24558,46.66106
1257485,456.9728,213.2871,66.36279,46.84142
1257519,458.4241,214.6487,66.42945,47.0233
1257552,458.8522,215.4023,66.44905,47.12344
1257583,458.5733,216.3278,66.43629,47.24591
1257617,458.238,217.5157,66.42092,47.40228
1257652,457.3139,220.2188,66.37849,47.75466
1257685,456.1764,225.927,66.32606,48.4834
1257718,455.9073,232.0132,66.31363,49.23801
1257749,456.0009,236.2417,66.31796,49.74906
1257782,456.0295,240.7116,66.31927,50.27783
1257824,456.687,243.1491,66.34962,50.56132
1257851,457.3329,245.0668,66.37937,50.78198
1257883,457.7412,247.1826,66.39813,51.02304
1257917,457.9374,248.1755,66.40714,51.13531
1257947,457.9346,249.2472,66.40701,51.25587
1257982,457.5827,251.0423,66.39085,51.45642
1258018,457.1274,252.9593,66.36991,51.66866
1258047,456.3419,256.1775,66.33371,52.02053
1258085,455.0606,261.4439,66.27442,52.58465
1258113,452.9549,268.2819,66.17638,53.29604
1258148,450.5544,274.0135,66.06368,53.87463
1258181,447.8883,279.9511,65.93733,54.45759
1258216,443.6893,286.231,65.73577,55.05661
1258245,436.0335,294.6249,65.36001,55.83019
1258290,430.424,299.2833,65.07768,56.24665
1258325,422.1173,304.5771,64.64832,56.70917
1258353,414.651,307.206,64.25044,56.93471
1258378,409.0847,308.5886,63.94616,57.05224
1258419,404.7952,309.034,63.70708,57.08994
1258446,401.9277,308.2286,63.54498,57.02171
1258479,400.4148,306.9208,63.45869,56.91037
1258520,399.8364,305.6518,63.42558,56.80169
1258551,400.5199,303.9832,63.46471,56.65783
1258581,402.4143,302.8506,63.57261,56.55956
1258615,405.0285,302.1423,63.72019,56.49784
1258648,409.4761,301.1223,63.96778,56.40861
1258688,411.924,300.9937,64.1022,56.39733
1258712,414.9538,300.6092,64.2668,56.36356
1258744,417.6975,300.5114,64.41418,56.35495
1258778,419.3499,300.2399,64.50218,56.33107
1258809,420.3856,299.7863,64.55706,56.29109
1258843,420.3659,298.1936,64.55602,56.15004
1258878,420.2264,296.8117,64.54864,56.02681
1258909,420.2057,295.5364,64.54755,55.91239
1258948,420.4845,294.3751,64.56229,55.80761
1258978,420.9066,293.5151,64.58458,55.72964
1259015,421.4391,292.7615,64.61265,55.66106
1259046,421.7351,292.5835,64.62823,55.64483
1259078,421.6558,292.4279,64.62405,55.63064
1259111,421.0334,292.4547,64.59127,55.63308
1259147,419.7819,292.3226,64.5251,55.62102
1259179,418.0971,292.2959,64.43552,55.61858
1259211,415.0806,292.2481,64.27364,55.61421
1259243,409.5396,291.2002,63.97128,55.51822
1259278,404.0136,290.5696,63.66308,55.46024
1259309,399.0182,289.5882,63.37859,55.36965
1259346,395.6747,288.1988,63.18497,55.24069
1259378,394.3396,287.9305,63.10692,55.21569
1259410,393.2158,288.332,63.0409,55.25309
1259442,391.5507,288.2266,62.94253,55.24328
1259476,389.7063,288.6084,62.83279,55.27879
1259511,387.0619,288.9378,62.674,55.30939
1259544,382.4128,289.0758,62.39065,55.32219
1259576,376.6963,289.398,62.03475,55.35205
1259612,369.8938,289.0869,61.6001,55.32321
1259644,363.0295,288.9427,61.14878,55.30984
1259675,356.6506,289.2727,60.71747,55.34044
1259709,350.271,289.5596,60.27422,55.36701
1259743,343.5236,289.6006,59.79196,55.3708
1259776,336.8267,289.745,59.29913,55.38415
1259812,331.2626,289.5264,58.87849,55.36393
1259843,325.3366,289.0592,58.41897,55.32065
1259876,320.4707,288.3105,58.03246,55.25109
1259909,315.1887,287.0722,57.60322,55.13551
1259945,309.9027,285.4811,57.16326,54.986
1259975,304.4724,283.7977,56.70013,54.8266
1260007,298.9785,281.9065,56.21968,54.64601
1260040,293.0776,280.1711,55.68986,54.47887
1260079,288.5317,279.3123,55.27166,54.39566
1260110,283.5024,278.7457,54.79851,54.34056
1260141,278.854,278.2675,54.35111,54.29395
1260174,274.7409,277.7527,53.94693,54.24366
1260208,270.5584,276.9005,53.52774,54.16013
1260240,266.5544,275.8472,53.11852,54.05642
1260274,263.2336,274.9654,52.77311,53.96919
1260309,260.7448,274.0079,52.51059,53.87407
1260344,258.9347,273.2304,52.31766,53.79651
1260377,257.5374,272.9403,52.16758,53.76749
1260409,256.2025,272.5829,52.02325,53.7317
1260441,255.1407,272.3387,51.90777,53.70719
1260475,254.4516,271.8862,51.83251,53.66173
1260508,253.6909,271.2398,51.74913,53.59661
1260544,253.0801,270.6513,51.68196,53.53714
1260578,252.9582,269.9066,51.66854,53.46167
1260609,253.0604,269.2616,51.6798,53.39606
1260647,253.1306,268.7595,51.68752,53.34486
1260677,252.9756,268.305,51.67045,53.2984
1260710,252.8195,267.5995,51.65325,53.2261
1260744,252.2596,266.3634,51.59142,53.0988
1260778,251.0531,264.808,51.45763,52.93755
1260814,250.4445,263.602,51.38983,52.8117
1260847,250.0829,262.8071,51.34946,52.72834
1260877,249.7483,262.1811,51.31203,52.66247
1260910,249.4724,261.7493,51.28113,52.61692
1260946,249.3047,261.0457,51.26233,52.54249
1260978,249.4901,260.2724,51.28312,52.4604
1261012,249.8429,259.3517,51.32262,52.36226
1261044,250.2968,258.4129,51.37335,52.26173
1261079,250.5984,257.3121,51.40699,52.14328
1261110,250.9675,256.3587,51.4481,52.04018
1261145,251.1893,255.3435,51.47277,51.92987
1261179,251.2908,254.1499,51.48405,51.79947
1261215,251.359,252.8695,51.49162,51.65876
1261243,251.5824,251.7023,51.51642,51.52971
1261276,251.7507,250.6847,51.53508,51.41661
1261310,251.7841,249.7318,51.53878,51.31019
1261345,251.7876,249.1165,51.53917,51.24121
1261378,251.8338,248.3925,51.54429,51.15977
1261409,251.9008,247.7654,51.55172,51.08901
1261442,252.2222,247.355,51.58729,51.04257
1261476,252.738,246.9162,51.64426,50.99282
1261509,253.1642,246.5151,51.69123,50.94726
1261542,253.5989,246.1873,51.73903,50.90995
1261576,254.2383,246.0917,51.80917,50.89906
1261613,254.7716,246.0626,51.86749,50.89575
1261644,255.1503,245.9327,51.90881,50.88094
1261676,255.3418,245.6784,51.92968,50.85191
1261711,255.535,245.4987,51.95073,50.83139
1261746,255.7698,245.4145,51.97626,50.82177
1261779,255.6521,245.813,51.96346,50.86728
1261813,255.7949,246.0159,51.97899,50.89043
1261846,256.1986,246.0746,52.02282,50.89711
1261878,256.8057,246.2528,52.08858,50.91741
1261914,257.3714,246.4582,52.14968,50.94079
1261951,258.1652,246.8648,52.23514,50.98699
1261986,259.0212,247.2517,52.32693,51.03087
1262014,259.9319,247.5451,52.42415,51.06409
1262047,260.7045,247.7139,52.50631,51.08319
1262080,261.3157,247.7832,52.57108,51.09101
1262117,262.2138,247.9482,52.66591,51.10966
1262148,262.9893,248.1195,52.74748,51.12899
1262184,263.6382,248.2991,52.81549,51.14925
1262215,263.9837,248.4779,52.85161,51.16939
1262248,264.2213,248.7342,52.87642,51.19825
1262281,264.4534,248.8876,52.90063,51.21549
1262312,264.425,248.8979,52.89767,51.21666
1262349,264.2982,248.9493,52.88444,51.22242
1262382,264.0486,249.1057,52.85839,51.24
1262415,263.7965,249.2495,52.83205,51.25613
1262447,263.6118,249.5547,52.81273,51.29036
1262481,263.4752,249.6947,52.79842,51.30603
1262513,263.4275,249.6846,52.79342,51.30491
1262547,263.2771,249.8438,52.77767,51.32273
1262580,263.0929,249.8675,52.75835,51.32537
1262613,262.9465,249.8654,52.74298,51.32515
1262646,262.7662,249.9393,52.72404,51.3334
1262679,262.666,249.7978,52.7135,51.31757
1262712,262.3731,249.7321,52.6827,51.31023
1262745,261.7291,249.5979,52.61478,51.2952
1262780,258.9184,248.3456,52.31591,51.15449
1262814,253.5283,246.4778,51.73127,50.94302
1262848,246.5315,244.6632,50.94912,50.73571
1262880,239.1392,243.2765,50.09315,50.57605
1262912,231.4266,241.9037,49.16626,50.4169
