Time Stamp(ms),Intersection,,Angle,
,x,y,x,y
1220269,319.6237,243.8842,57.96431,50.64615
1220300,321.8433,244.1863,58.14234,50.68092
1220333,324.6929,244.6695,58.36832,50.73643
1220367,326.3191,245.0538,58.49599,50.78049
1220399,328.1263,245.5827,58.6368,50.84098
1220431,329.9051,245.5474,58.77429,50.83695
1220463,331.4705,244.8295,58.8944,50.75478
1220499,332.795,244.4046,58.99537,50.70602
1220534,334.1194,244.0777,59.09575,50.66843
1220564,335.6429,244.2489,59.21049,50.68813
1220595,336.9709,244.4223,59.30989,50.70805
1220629,338.3366,243.9688,59.41151,50.65588
1220664,339.4221,243.5878,59.49184,50.61197
1220695,340.4662,243.1239,59.56876,50.55841
1220730,341.342,242.5509,59.633,50.49206
1220761,342.4072,242.0042,59.7108,50.42858
1220793,344.1909,241.3689,59.84029,50.35461
1220826,347.3237,240.6929,60.0653,50.27564
1220864,350.6309,240.3049,60.29955,50.2302
1220893,354.9038,239.8668,60.59731,50.17879
1220925,360.1882,239.27,60.95811,50.10857
1220961,365.5375,237.4462,61.31519,49.89269
1220993,373.1757,234.2395,61.81134,49.5084
1221026,383.2638,231.8822,62.44293,49.22201
1221061,392.829,230.4208,63.01811,49.04276
1221094,402.5913,229.5461,63.58266,48.93486
1221128,411.7308,228.1152,64.09164,48.75734
1221159,420.6283,226.5511,64.56989,48.56184
1221193,429.729,224.8058,65.04227,48.34189
1221227,438.7025,222.7969,65.49224,48.08635
1221260,446.1368,220.8136,65.85364,47.83156
1221294,451.5328,219.4321,66.10973,47.65259
1221327,455.4432,218.5967,66.29215,47.54376
1221359,458.5136,218.0677,66.43356,47.47463
1221393,460.6283,217.512,66.53001,47.40178
1221427,461.8983,217.101,66.58759,47.34779
1221460,462.0852,217.5328,66.59605,47.40452
1221493,461.3626,217.84,66.56334,47.4448
1221525,460.2499,218.4277,66.51281,47.52169
1221559,459.1676,220.0852,66.46346,47.73736
1221590,457.709,222.134,66.39665,48.00147
1221624,456.1819,224.7801,66.32632,48.33864
1221657,455.2005,227.6699,66.28091,48.70183
1221691,454.641,229.3824,66.25494,48.91462
1221722,454.373,230.5715,66.24249,49.06131
1221757,455.3028,231.602,66.28564,49.18773
1221789,457.8582,232.5354,66.4035,49.3017
1221823,460.826,234.0986,66.539,49.49138
1221859,463.0652,235.5797,66.64027,49.66975
1221890,465.1468,236.9794,66.73366,49.83713
1221925,465.8615,238.5993,66.76556,50.0294
1221956,465.2852,240.4712,66.73985,50.24969
1221990,463.6911,241.8835,66.66842,50.41455
1222023,461.6224,244.2139,66.5751,50.6841
1222056,458.8696,247.0673,66.44984,51.00997
1222088,456.428,250.7422,66.33768,51.42302
1222120,455.3877,255.6027,66.28958,51.95809
1222153,455.3332,261.0981,66.28706,52.54805
1222187,455.4666,265.8201,66.29324,53.04261
1222222,452.6951,268.8048,66.16423,53.34948
1222255,447.5783,269.7771,65.92256,53.44851
1222287,443.9023,271.0687,65.74607,53.57934
1222320,440.2863,272.7142,65.57008,53.74485
1222354,435.7208,274.2882,65.34443,53.90197
1222387,431.9449,275.7414,65.15482,54.04597
1222418,429.9229,277.2178,65.05217,54.19127
1222451,428.151,279.4781,64.96155,54.41175
1222483,426.508,282.6022,64.87698,54.71264
1222515,425.5896,285.9409,64.82946,55.02932
1222548,424.158,290.0764,64.75507,55.41476
1222586,422.3541,293.7648,64.66074,55.75231
1222616,420.423,297.3154,64.55904,56.07182
1222649,418.0957,301.4913,64.43544,56.44093
1222685,416.1631,304.5085,64.33195,56.70324
1222719,414.6267,307.2691,64.24912,56.94009
1222748,412.029,311.5966,64.10793,57.3054
1222781,408.8279,317.2542,63.93196,57.77229
1222815,404.4583,323.2734,63.68813,58.2561
1222848,398.9531,327.4154,63.37484,58.58155
1222881,393.8792,330.5925,63.07991,58.82714
1222915,389.5228,333.4385,62.82182,59.04422
1222947,385.225,336.6726,62.56269,59.28762
1222982,381.4035,339.8688,62.32843,59.52479
1223015,377.9763,343.2299,62.11518,59.77065
1223048,375.1097,346.5697,61.93447,60.01143
1223081,372.3074,349.6139,61.75573,60.22787
1223113,368.9651,351.9632,61.5398,60.39297
1223151,365.6497,352.9327,61.32259,60.46063
1223180,362.1283,353.6996,61.08855,60.51394
1223213,357.5674,354.2261,60.78018,60.55045
1223250,353.0637,354.741,60.46975,60.58606
1223281,349.4976,355.5571,60.21965,60.64235
1223314,347.0574,356.1108,60.04629,60.68043
1223347,344.5928,356.9189,59.86933,60.73585
1223381,342.2165,357.8593,59.6969,60.8001
1223425,338.7389,358.6642,59.44132,60.85489
1223451,334.9226,359.2287,59.15634,60.8932
1223482,329.731,359.7482,58.76088,60.92838
1223517,323.83,360.297,58.30019,60.96545
1223549,317.2883,360.7019,57.77506,60.99275
1223585,311.4831,361.1568,57.29591,61.02337
1223618,305.48,361.3702,56.78694,61.0377
1223651,298.9569,361.7266,56.21776,61.06163
1223685,292.942,362.2865,55.67751,61.09914
1223717,286.601,361.1315,55.09135,61.02166
1223752,279.6953,359.9879,54.43281,60.94458
1223784,272.4041,359.0358,53.71376,60.88011
1223816,265.5422,357.7612,53.01382,60.79341
1223847,258.6187,356.3064,52.28381,60.69386
1223885,252.4796,355.6204,51.61574,60.64671
1223918,246.9741,355.1053,50.9994,60.61121
1223947,241.5329,354.1787,50.37372,60.54716
1223978,237.4378,353.7555,49.89169,60.51782
1224010,232.8854,352.6318,49.34429,60.43966
1224044,227.9375,351.3336,48.7352,60.34889
1224077,223.5097,350.3034,48.17732,60.2765
1224114,218.6575,348.7003,47.5517,60.16321
1224145,214.1029,347.2238,46.95053,60.05817
1224177,209.4808,345.424,46.32634,59.92922
1224210,204.6744,343.6308,45.66179,59.79974
1224245,199.8488,341.9134,44.97833,59.67478
1224280,194.3469,338.8215,44.1787,59.44744
1224314,187.7357,334.7191,43.1883,59.14101
1224348,184.2386,330.4581,42.65106,58.81681
1224379,182.13,326.1561,42.32257,58.48324
1224410,179.8939,320.5337,41.97041,58.03751
1224444,178.4964,315.7518,41.74834,57.64947
1224478,177.7376,311.6662,41.6271,57.31122
1224510,177.144,307.5994,41.53195,56.96823
1224545,176.9935,303.5856,41.50778,56.62339
1224577,178.0318,300.3081,41.67416,56.33707
1224609,179.9782,297.0933,41.98376,56.05199
1224643,181.5951,293.7414,42.23868,55.75019
1224676,183.4039,290.4781,42.52143,55.45181
1224707,185.4517,287.2028,42.83849,55.14772
1224739,186.4841,283.618,42.9971,54.80951
1224772,187.1551,280.0639,43.09975,54.46851
1224807,188.4981,276.9438,43.30419,54.16439
1224839,189.8772,273.9188,43.5127,53.86519
1224872,191.3183,271.0211,43.72906,53.57453
1224910,192.7266,268.2019,43.93898,53.28785
1224939,194.6413,265.4473,44.22205,53.00398
1224974,196.0447,262.8042,44.4278,52.72803
1225007,196.9083,260.0905,44.55371,52.44104
1225038,197.3607,257.3474,44.61944,52.14709
1225073,196.9306,254.8145,44.55696,51.87217
1225109,195.7531,252.2786,44.38517,51.59352
1225139,194.1945,249.3792,44.15623,51.27068
1225174,192.3462,245.9678,43.88242,50.88494
1225208,190.593,242.9338,43.62036,50.53641
1225237,188.9313,239.8835,43.36984,50.18075
1225271,187.0184,236.6886,43.07888,49.80245
1225304,185.249,233.0181,42.80725,49.36043
1225337,182.5167,228.4483,42.38306,48.79877
1225371,179.2725,224.0443,41.87186,48.24533
1225406,176.7032,219.9837,41.46111,47.7242
1225436,174.4986,216.4238,41.10447,47.25858
1225471,173.2009,213.7381,40.8927,46.90179
1225505,172.6263,211.2649,40.7985,46.56898
1225537,172.6068,209.1584,40.79531,46.28226
1225568,173.1777,207.4776,40.8889,46.05131
1225603,174.7679,205.3885,41.14824,45.76154
1225637,176.7838,202.7495,41.47408,45.39115
1225667,179.4379,200.5042,41.89812,45.07212
1225700,182.432,198.4697,42.36982,44.77996
1225733,185.6675,196.9357,42.87171,44.55769
1225767,188.6549,195.5985,43.32797,44.36255
1225800,191.1733,194.4253,43.70735,44.19025
1225833,192.9335,193.6024,43.96971,44.0688
1225865,194.3715,192.1622,44.18233,43.85504
1225897,196.0229,191.3597,44.42461,43.73525
1225933,198.3246,190.9981,44.75901,43.68111
1225972,200.8931,190.8215,45.12764,43.65465
1225998,203.4741,190.9868,45.49334,43.67942
1226032,207.6286,191.939,46.07214,43.82177
1226065,211.6485,192.4644,46.62087,43.90002
1226099,214.3374,192.9301,46.98182,43.9692
1226131,217.2879,194.1494,47.37237,44.14959
1226165,219.7556,194.8499,47.6946,44.25273
1226197,220.7687,195.2384,47.82576,44.30978
1226230,221.6156,196.3548,47.9349,44.47308
1226261,222.6079,197.4323,48.06219,44.62984
1226296,224.0425,198.5135,48.2451,44.78627
1226329,226.3754,199.5062,48.53978,44.92918
1226361,227.9868,199.7913,48.74134,44.97009
1226396,229.8736,198.3379,48.97532,44.76093
1226428,232.7608,198.5472,49.32914,44.79115
1226462,235.3258,199.9981,49.63927,44.99973
1226494,238.1627,201.9554,49.97773,45.27872
1226530,241.4268,203.6991,50.36136,45.52498
1226560,244.4121,205.7203,50.70688,45.80777
1226594,246.8831,207.4792,50.98907,46.05154
1226627,248.4518,209.0678,51.16645,46.26986
1226664,248.683,210.7171,51.19249,46.49472
1226694,246.972,212.6274,50.99915,46.75284
1226729,243.8544,214.6234,50.64272,47.01994
1226762,239.9781,217.1007,50.19186,47.34775
1226794,235.3474,220.555,49.64187,47.79815
1226829,230.8251,225.0045,49.09248,48.36703
1226861,224.797,230.182,48.34079,49.01336
1226893,219.8987,235.9837,47.71318,49.71818
1226929,215.8038,242.6824,47.17664,50.5073
1226962,211.9269,249.5283,46.65847,51.2874
1226993,207.0757,255.7782,45.99581,51.97718
1227026,201.124,261.5789,45.16055,52.59891
1227059,194.8178,266.5356,44.248,53.11658
1227094,188.7798,270.9952,43.34691,53.57192
1227127,183.1177,275.506,42.47686,54.02272
1227159,178.7426,280.1447,41.78757,54.47633
1227191,174.1014,286.9502,41.0398,55.12408
1227228,171.5085,293.5857,40.61449,55.73605
1227263,170.5997,298.4337,40.46412,56.17136
1227294,171.1668,303.2336,40.55804,56.59285
1227330,171.544,305.7169,40.62035,56.80729
1227358,172.4918,309.039,40.77643,57.09037
1227393,174.855,312.2249,41.16238,57.35784
1227428,177.5799,314.7928,41.60186,57.57063
1227458,181.3039,317.1218,42.19292,57.7615
1227491,189.1875,320.2043,43.4086,58.01105
1227524,197.2521,322.6743,44.60367,58.20854
1227556,208.5379,325.3123,46.19724,58.41705
1227592,214.3552,327.0917,46.9842,58.55633
1227627,219.9294,328.6668,47.71716,58.67869
1227661,225.6262,330.1978,48.44552,58.79681
1227692,229.0704,330.8772,48.87598,58.84897
1227727,233.065,331.0712,49.36613,58.86384
1227760,236.2839,331.3187,49.75411,58.88279
1227793,238.3021,331.4416,49.99424,58.89219
1227827,240.9915,332.0792,50.31056,58.94087
1227859,242.3331,332.6581,50.46679,58.98496
1227891,242.723,331.8357,50.51201,58.9223
1227925,243.3547,328.3315,50.58507,58.65272
1227955,244.8906,323.178,50.76179,58.24854
1227992,246.9601,316.8416,50.9978,57.73864
1228020,249.126,311.6205,51.24227,57.3074
1228057,251.2608,308.4269,51.48071,57.03853
1228090,253.2406,306.6051,51.69964,56.8834
1228143,255.6795,304.0509,51.96644,56.6637
1228164,257.4924,302.8996,52.16273,56.56382
1228189,261.4064,300.6329,52.58068,56.36564
1228228,265.7634,297.9462,53.03674,56.12803
1228259,271.2217,295.431,53.59478,55.9029
1228287,278.9386,292.1454,54.35933,55.60482
1228325,291.415,288.6285,55.53794,55.28066
1228356,304.675,285.8676,56.71761,55.02242
1228392,319.3538,284.5718,57.94254,54.90005
1228423,332.7393,283.6078,58.99113,54.80854
1228455,344.8727,282.7474,59.88952,54.72651
1228488,359.5709,282.4031,60.91638,54.69358
1228531,368.8905,282.5005,61.53495,54.70291
1228557,380.3098,282.1286,62.2607,54.6673
1228590,392.5471,282.806,63.00148,54.73211
1228621,405.8155,283.2827,63.76432,54.77758
1228655,420.6387,284.1042,64.57043,54.85571
1228689,432.5032,285.3118,65.18303,54.97002
1228722,445.2721,287.1945,65.81212,55.14695
1228756,455.7659,289.7596,66.30708,55.38551
1228791,465.8327,295.4006,66.76428,55.90017
1228824,474.9417,302.5121,67.16383,56.53009
1228857,483.7257,310.8443,67.53699,57.24241
1228887,492.0592,320.9101,67.88046,58.06771
1228924,498.6385,329.3457,68.14467,58.73117
1228952,505.5216,336.0337,68.41471,59.23981
1228987,511.4449,340.5333,68.64207,59.57368
1229019,515.7985,342.7279,68.80628,59.73416
1229052,519.8063,344.7599,68.95534,59.88139
1229085,523.6507,346.9776,69.09644,60.04059
1229119,525.9683,348.5982,69.18064,60.15597
1229153,527.4446,349.3969,69.23394,60.21253
1229184,528.5246,349.1741,69.27276,60.19678
1229218,528.1875,348.475,69.26066,60.14722
1229252,525.917,346.6525,69.17879,60.01735
1229284,522.3799,343.9695,69.05,59.82428
1229318,518.7761,341.356,68.91721,59.63402
1229350,515.4227,338.3174,68.79221,59.41009
1229383,512.6699,335.4941,68.68852,59.19932
1229414,510.3301,332.6007,68.59963,58.9806
1229447,507.7661,329.3992,68.5014,58.7353
1229482,504.7993,325.5534,68.38667,58.43599
1229514,502.2186,322.0008,68.28593,58.1549
1229548,498.9247,318.4078,68.15602,57.86603
1229580,495.1198,314.6479,68.00412,57.55869
1229625,491.1902,310.8761,67.84511,57.24507
1229646,486.9601,307.1493,67.67149,56.92987
1229678,482.5161,303.8907,67.48629,56.64983
1229713,478.203,300.5974,67.30373,56.36251
1229744,473.8464,297.4416,67.11648,56.08308
1229778,470.38,294.8745,66.96538,55.85273
1229808,466.7808,292.1537,66.80648,55.60558
1229841,462.8145,288.8304,66.62897,55.29941
1229883,459.961,286.6056,66.49966,55.09177
1229909,456.4499,283.9901,66.33869,54.84488
1229947,453.4135,281.5913,66.19779,54.61576
1229977,450.6451,279.5967,66.06796,54.42325
1230011,447.6706,277.6061,65.92696,54.22931
1230043,445.0299,275.6988,65.80047,54.04177
1230073,442.54,273.6508,65.68005,53.83848
1230105,439.9348,271.5631,65.55285,53.6292
1230139,437.5139,269.6271,65.43352,53.43326
1230172,435.2798,267.814,65.32242,53.2481
1230205,433.3854,265.9146,65.22748,53.0524
1230239,432.1018,263.4044,65.16276,52.79101
