Time Stamp(ms),Intersection,,Angle,
,x,y,x,y
2151277,315.4234,249.1503,57.62251,51.245
2151294,315.5078,249.1064,57.62944,51.24007
2151312,315.7032,249.2779,57.64548,51.25932
2151328,316.3323,249.6004,57.69702,51.29547
2151348,317.0366,249.9654,57.75455,51.33632
2151364,318.1182,250.464,57.84254,51.39201
2151380,318.9902,250.7237,57.91317,51.42095
2151398,319.7679,251.0468,57.97593,51.45692
2151413,320.3811,251.1246,58.02526,51.46558
2151430,320.6372,251.3549,58.04582,51.49116
2151447,320.5015,251.9074,58.03493,51.55244
2151463,320.3047,252.2915,58.01912,51.59495
2151480,319.9571,252.5854,57.99117,51.62741
2151503,319.391,252.6122,57.94554,51.63038
2151517,318.8757,252.4695,57.90392,51.61462
2151531,318.3424,252.2532,57.86073,51.59071
2151548,317.8596,251.9029,57.82154,51.55194
2151563,317.4961,251.7471,57.79199,51.53469
2151580,317.2651,251.6508,57.77318,51.524
2151597,317.038,251.5321,57.75467,51.51083
2151614,316.9531,251.396,57.74774,51.49573
2151630,317.0178,251.2731,57.75302,51.48208
2151649,317.0382,251.224,57.75468,51.47662
2151664,317.0732,251.3804,57.75753,51.49399
2151681,316.9724,251.3391,57.74931,51.48941
2151697,316.9157,251.2749,57.74469,51.48228
2151714,316.8934,251.2201,57.74287,51.47619
2151731,316.9079,251.307,57.74405,51.48585
2151747,317.0924,251.2194,57.7591,51.47612
2151764,317.5424,251.0718,57.79575,51.45971
2151780,318.2177,250.9089,57.85061,51.44158
2151796,319.3353,250.6915,57.94104,51.41736
2151816,320.3884,250.5888,58.02584,51.40593
2151836,321.5086,250.4835,58.11561,51.39418
2151847,322.9796,250.2886,58.2328,51.37243
2151866,324.3286,249.8644,58.33959,51.32502
2151882,325.6401,249.3495,58.4428,51.26735
2151897,326.9728,248.6445,58.54706,51.18815
2151915,328.1057,248.0881,58.6352,51.12544
2151933,329.1436,247.7973,58.71557,51.09261
2151951,329.9839,247.5857,58.78036,51.06868
2151967,330.6607,247.6941,58.83237,51.08094
2151981,331.0623,248.1443,58.86316,51.13179
2151997,331.3542,248.5044,58.8855,51.17237
2152017,331.6641,248.8821,58.90919,51.21488
2152030,331.6396,249.4045,58.90732,51.27352
2152049,331.7418,249.6615,58.91513,51.30232
2152063,331.6474,250.0298,58.90792,51.34352
2152080,331.6178,250.2583,58.90566,51.36905
2152096,331.5567,250.3791,58.90099,51.38254
2152113,331.4637,250.4439,58.89388,51.38976
2152131,331.455,250.3562,58.89322,51.37998
2152147,331.3585,250.3271,58.88583,51.37673
2152163,331.2505,250.1838,58.87757,51.36073
2152185,331.2198,250.2618,58.87522,51.36945
2152200,331.1688,250.3477,58.87132,51.37902
2152216,331.1492,250.5,58.86981,51.39602
2152233,331.2085,250.55,58.87435,51.4016
2152247,331.293,250.7971,58.88082,51.42913
2152264,331.3846,251.0146,58.88783,51.45334
2152281,331.5535,251.1451,58.90075,51.46786
2152297,331.7252,251.2294,58.91386,51.47722
2152313,331.9004,251.1362,58.92724,51.46687
2152332,332.1419,251.2386,58.94566,51.47824
2152348,332.4037,251.2251,58.9656,51.47675
2152365,332.684,251.0858,58.98693,51.46126
2152380,332.8785,250.9235,59.00172,51.4432
2152397,333.1,250.7486,59.01854,51.42373
2152415,333.2587,250.5024,59.03059,51.39629
2152434,333.3264,250.261,59.03572,51.36935
2152448,333.3143,249.9933,59.0348,51.33944
2152465,333.0777,249.7627,59.01685,51.31365
2152481,332.8195,249.6239,58.99724,51.2981
2152497,332.5458,249.537,58.97642,51.28838
2152514,332.0892,249.4097,58.94164,51.27411
2152531,331.5596,249.0835,58.90121,51.2375
2152547,331.0209,248.7193,58.85999,51.19656
2152565,330.5853,248.5503,58.82658,51.17755
2152581,330.1436,248.5784,58.79265,51.18071
2152598,329.7888,248.6328,58.76533,51.18683
2152614,329.4742,248.9358,58.74109,51.22091
2152631,329.085,249.294,58.71104,51.26112
2152649,328.8669,249.3049,58.69418,51.26235
2152665,328.6443,249.4042,58.67694,51.27349
2152682,328.6246,249.2207,58.67543,51.2529
2152698,328.8146,248.983,58.69013,51.22621
2152714,329.0067,248.5406,58.70498,51.17645
2152732,329.5147,247.8923,58.74421,51.10334
2152748,330.1414,247.4635,58.79248,51.05486
2152766,331.0203,247.1949,58.85994,51.02444
2152781,331.9857,246.8549,58.93374,50.98587
2152798,333.0305,246.4185,59.01326,50.93627
2152814,334.1706,246.0004,59.09962,50.88866
2152832,335.1375,245.643,59.17252,50.84787
2152848,336.1189,245.553,59.24619,50.8376
2152865,336.9409,245.4863,59.30765,50.82998
2152881,337.7763,245.4409,59.3699,50.82478
2152898,338.5616,245.4175,59.42819,50.82211
2152914,339.3629,245.2095,59.48747,50.79831
2152932,340.0833,245.0834,59.54058,50.78387
2152950,340.7723,245.114,59.59124,50.78738
2152966,341.389,245.0661,59.63644,50.78189
2152984,342.0248,244.8362,59.68292,50.75556
2153000,342.566,244.4386,59.72237,50.70993
2153014,343.0818,244.105,59.7599,50.67157
2153034,343.5667,243.8022,59.79509,50.63669
2153051,343.8194,243.5255,59.8134,50.60479
2153067,343.9969,243.0345,59.82626,50.54806
2153083,343.9872,242.2347,59.82556,50.45537
2153100,344.1788,241.3917,59.83942,50.35727
2153118,344.5674,240.5919,59.8675,50.26383
2153138,345.0972,239.7054,59.9057,50.15982
2153149,345.3892,238.993,59.92672,50.0759
2153169,345.812,238.6591,59.9571,50.03647
2153183,346.1635,238.2896,59.98232,49.99276
2153199,346.4778,238.0886,60.00484,49.96895
2153216,346.7616,238.0335,60.02515,49.96243
2153233,347.0939,238.013,60.04889,49.95999
2153250,347.3987,238.0192,60.07064,49.96073
2153269,347.5965,238.0515,60.08474,49.96456
2153284,347.9363,238.0016,60.10894,49.95864
2153300,348.0898,238.0577,60.11986,49.96529
2153317,348.3126,238.0709,60.13569,49.96685
2153335,348.6082,238.1181,60.15668,49.97245
2153352,348.9427,237.8251,60.18039,49.93771
2153368,349.3448,237.5586,60.20885,49.90606
2153385,349.9593,237.2479,60.25225,49.86911
2153401,350.4823,236.8047,60.28909,49.81631
2153418,351.0204,236.5095,60.32692,49.78107
2153434,351.8097,236.2265,60.38224,49.74725
2153451,352.4492,235.9513,60.42692,49.7143
2153468,353.1161,235.7634,60.4734,49.69178
2153484,353.6809,235.5059,60.51264,49.6609
2153500,354.2905,235.2228,60.5549,49.62689
2153516,355.2021,234.9852,60.61789,49.59832
2153534,356.0436,234.7869,60.67582,49.57444
2153551,356.9893,234.6245,60.74067,49.55486
2153567,358.0112,234.3878,60.81046,49.52631
2153584,359.205,234.0534,60.89159,49.48592
2153601,361.0753,233.6398,61.01788,49.43586
2153617,363.1324,233.3775,61.15564,49.40406
2153633,365.1905,233.1519,61.29227,49.37668
2153651,367.2195,233.0942,61.42581,49.36967
2153667,368.2767,233.2929,61.49495,49.3938
2153683,368.407,233.4985,61.50344,49.41874
2153701,367.4952,233.8583,61.44387,49.46231
2153717,366.8311,234.1912,61.40033,49.50257
2153734,365.7533,234.3662,61.32943,49.52371
2153752,365.1884,234.3949,61.29213,49.52718
2153767,364.8147,234.4483,61.26741,49.53362
2153785,364.7064,234.4544,61.26023,49.53436
2153801,364.7783,234.3652,61.265,49.52359
2153817,364.9112,234.3007,61.2738,49.5158
2153835,365.1636,234.2144,61.29049,49.50538
2153851,365.459,233.9245,61.31001,49.47033
2153868,365.8724,233.568,61.33728,49.42717
2153884,366.3914,233.228,61.37144,49.38593
2153901,367.1842,232.8889,61.4235,49.34472
2153919,367.9147,232.6931,61.47131,49.3209
2153934,368.7826,232.6211,61.52792,49.31213
2153951,369.7211,232.5184,61.58891,49.29962
2153968,370.7356,232.4808,61.65456,49.29505
2153984,371.9268,232.4024,61.7313,49.28549
2154002,372.9376,232.3118,61.79611,49.27445
2154018,373.9195,232.2169,61.85881,49.26287
2154035,374.849,232.1041,61.91793,49.2491
2154052,375.7439,231.9723,61.97463,49.23301
2154069,376.5954,231.9706,62.02839,49.23281
2154090,377.1163,231.9368,62.06119,49.22868
2154103,377.6775,231.9259,62.09644,49.22734
2154120,378.3935,232.0926,62.1413,49.2477
2154135,379.9374,232.2945,62.23757,49.27234
2154152,381.4249,232.2267,62.32975,49.26406
2154169,382.9826,232.1,62.42567,49.24861
2154186,384.5952,231.9831,62.52434,49.23434
2154201,385.9572,231.8,62.60716,49.21196
2154220,387.2066,231.6481,62.68274,49.19338
2154237,388.3059,231.5459,62.74892,49.18087
2154254,389.3317,231.4302,62.8104,49.16671
2154269,390.246,231.1489,62.86499,49.13223
2154288,390.9026,230.9762,62.90406,49.11103
2154303,391.4758,230.5653,62.93809,49.06054
2154322,391.9719,230.2443,62.96748,49.02103
2154338,392.4017,229.901,62.99289,48.97869
2154353,392.7189,229.5601,63.01161,48.9366
2154372,393.0128,229.2723,63.02895,48.90099
2154388,393.1315,229.1652,63.03594,48.88773
2154406,393.0634,229.1806,63.03193,48.88963
2154422,393.0225,229.1927,63.02951,48.89114
2154438,392.856,229.2161,63.0197,48.89403
2154454,392.414,229.1986,62.99361,48.89186
2154473,391.9579,229.0983,62.96665,48.87944
2154489,391.2185,229.1316,62.92282,48.88357
2154506,390.5102,229.0687,62.88072,48.87578
2154523,389.5287,229.1385,62.82217,48.88443
2154537,388.743,228.9563,62.77515,48.86184
2154554,387.7717,228.7966,62.71679,48.84203
2154571,386.9933,228.6764,62.66986,48.82711
2154588,386.058,228.7852,62.61327,48.84061
2154607,384.9658,228.8372,62.54692,48.84707
2154630,383.9098,228.8135,62.48248,48.84413
2154646,383.0394,228.8174,62.42916,48.84461
2154659,382.106,228.8208,62.37177,48.84504
2154672,381.0728,228.9478,62.30798,48.86079
2154689,379.8675,229.1189,62.23322,48.88199
2154710,378.6305,229.2587,62.15611,48.8993
2154724,377.4409,229.4353,62.08158,48.92115
2154739,376.1998,229.7249,62.00344,48.95695
2154755,374.9041,229.9884,61.92142,48.98949
2154771,373.6767,230.4226,61.84333,49.04298
2154788,372.3491,230.8935,61.7584,49.10088
2154805,370.8925,231.5154,61.66468,49.17714
2154822,369.543,232.1424,61.57735,49.25378
2154838,367.8408,233.0862,61.46648,49.3687
2154857,366.2267,233.9643,61.36061,49.47515
2154872,364.5345,234.8251,61.24885,49.57904
2154900,361.8929,235.9109,61.07278,49.70947
2154916,360.0433,236.5564,60.94832,49.78667
2154931,358.2787,237.1565,60.82867,49.85823
2154943,356.8397,237.7099,60.73042,49.92403
2154955,354.7354,238.4341,60.58567,50.00987
2154972,352.508,238.9733,60.43103,50.07357
2154990,350.8004,239.3063,60.31146,50.11285
2155006,348.7815,239.6698,60.16896,50.15564
2155022,347.0834,239.8864,60.04815,50.18108
2155040,345.7092,240.0457,59.94972,50.19979
2155057,344.1161,240.3025,59.83488,50.22992
2155074,342.5424,240.6383,59.72065,50.26926
2155093,341.3069,241.0674,59.63043,50.31942
2155107,339.8832,241.7092,59.52585,50.39426
2155124,338.5157,242.348,59.42479,50.46852
2155140,337.05,243.2871,59.31579,50.57726
2155156,335.328,244.2706,59.18684,50.69062
2155176,333.9666,245.2739,59.0842,50.80569
2155190,332.121,246.7196,58.94407,50.9705
2155207,330.213,248.172,58.79799,51.13492
2155222,327.5034,250.3401,58.5884,51.37819
2155239,324.3968,252.9645,58.34497,51.66924
2155256,320.7668,256.2582,58.05621,52.02928
2155273,316.6537,260.3677,57.72329,52.47053
2155289,312.9922,264.0477,57.42169,52.85829
2155304,309.5026,267.5369,57.12953,53.21966
2155324,306.385,270.6456,56.86456,53.53657
2155345,303.3528,273.5911,56.6032,53.83252
2155357,300.8299,276.0976,56.38295,54.08112
2155370,298.2876,278.2667,56.15839,54.29387
2155389,296.0808,280.2168,55.96132,54.48329
2155405,293.9363,282.0593,55.76786,54.66066
2155422,292.1159,283.4715,55.60213,54.79557
2155439,290.3734,284.9258,55.44216,54.93356
2155455,288.8074,286.4634,55.29728,55.07843
2155472,287.4909,287.9935,55.17466,55.22156
2155488,286.1087,289.8158,55.0451,55.39069
2155505,284.9924,291.5141,54.93985,55.54703
2155524,284.061,293.2291,54.85162,55.70364
2155539,283.1758,294.8935,54.76739,55.85445
2155554,282.2946,296.6198,54.6832,56.00963
2155571,281.1215,298.4196,54.57058,56.17011
2155591,279.7578,299.7052,54.43887,56.28393
2155607,278.3497,300.9668,54.30198,56.39496
2155623,276.9056,302.1937,54.16063,56.50232
2155641,275.6431,303.2193,54.03627,56.59161
2155657,274.4599,304.1799,53.91903,56.67485
2155671,272.8841,305.4158,53.76186,56.78142
2155689,271.1087,306.3459,53.58338,56.86121
2155706,269.3804,307.2599,53.40816,56.9393
2155723,267.4573,308.4031,53.21149,57.03651
2155743,265.9494,309.1198,53.056,57.0972
2155757,264.3882,309.8542,52.89382,57.15918
2155772,262.5585,310.8427,52.70221,57.24227
2155792,260.7471,311.7642,52.51083,57.3194
2155807,258.8055,312.7139,52.30383,57.39855
2155823,257.0154,313.5212,52.11125,57.46557
2155840,255.276,314.2907,51.92252,57.52922
2155857,253.9991,314.7695,51.78295,57.56871
2155874,252.2568,315.5417,51.59111,57.63222
2155891,250.9926,316.2455,51.45089,57.68992
2155908,249.8464,316.8968,51.32302,57.74314
2155924,248.9783,317.3812,51.22569,57.78263
2155939,248.053,317.7971,51.12149,57.81646
2155956,247.3374,318.0817,51.04057,57.83958
2155973,246.7112,318.3392,50.96954,57.86047
2155990,246.0529,318.6268,50.89463,57.88377
2156006,245.5708,318.8483,50.83963,57.9017
2156024,245.2764,319.1692,50.80597,57.92763
2156042,244.9063,319.4611,50.76359,57.9512
2156058,244.6093,319.5728,50.72952,57.9602
2156074,244.3647,319.6942,50.70143,57.96999
2156090,244.1037,319.8109,50.67141,57.97939
2156107,243.7948,320.0223,50.63584,57.99641
2156124,243.5327,320.1179,50.60563,58.0041
2156141,243.3195,320.1956,50.58101,58.01035
2156157,243.15,320.0851,50.56142,58.00147
2156174,243.0472,320.0192,50.54954,57.99616
2156191,243.0007,319.9879,50.54415,57.99364
2156208,242.8304,319.7352,50.52444,57.9733
2156224,242.5443,319.3922,50.49129,57.94564
2156242,242.1744,319.2274,50.44837,57.93234
2156258,241.8698,318.9784,50.41296,57.91222
2156274,241.4759,318.8399,50.36709,57.90102
2156291,240.8376,318.5873,50.29257,57.88058
2156307,240.1264,318.0652,50.20926,57.83824
2156324,239.3517,317.345,50.11819,57.77968
2156341,238.5218,316.1527,50.02024,57.68232
2156358,237.6867,314.6045,49.92128,57.55511
2156373,236.3651,312.1055,49.76382,57.34789
2156391,235.3727,310.0154,49.6449,57.17276
2156409,234.5181,307.3251,49.54203,56.94486
2156426,233.7128,304.205,49.44471,56.67702
2156443,232.783,300.6854,49.33184,56.37025
2156459,231.8558,296.4048,49.21878,55.99038
2156476,231.3042,292.5966,49.15126,55.64603
2156492,231.0523,289.15,49.12038,55.32907
2156508,232.0427,285.915,49.24162,55.02689
2156526,233.7262,282.7431,49.44633,54.7261
2156542,236.0943,279.7662,49.73143,54.43968
2156558,239.5345,276.8615,50.13972,54.1563
2156574,243.2085,273.3932,50.56818,53.81277
2156592,247.7082,270.2041,51.08254,53.49185
2156610,251.591,267.1682,51.51738,53.18177
2156625,256.0112,263.5935,52.00248,52.81081
2156642,260.1005,259.8706,52.4421,52.41762
2156659,263.8235,256.437,52.83487,52.04867
2156674,268.5585,252.4505,53.32433,51.61253
2156692,272.4544,249.1446,53.71881,51.24436
2156709,276.2387,245.6737,54.09503,50.85138
2156726,279.6306,242.2146,54.42654,50.45303
2156742,282.9101,238.8238,54.74204,50.05593
2156758,285.8503,235.9107,55.02079,49.70944
2156776,289.0374,232.827,55.31863,49.33719
2156793,292.0886,230.0304,55.59963,48.99467
2156810,295.4017,227.4664,55.90027,48.67643
2156827,298.4503,225.1572,56.17284,48.38633
2156844,301.7652,223.175,56.4649,48.13465
2156859,305.3873,221.0626,56.77897,47.86369
2156876,309.9348,218.8135,57.16597,47.57205
2156893,316.4052,216.4812,57.70299,47.26616
2156911,322.9653,214.7469,58.23166,47.03637
2156928,329.9877,213.5731,58.78065,46.87972
2156943,338.7311,212.5142,59.44075,46.73762
2156960,345.3964,211.6378,59.92723,46.61944
2156975,353.1073,210.4786,60.47278,46.46232
2156993,360.3502,209.2378,60.96904,46.29313
2157009,366.8782,207.8195,61.40343,46.09845
2157027,372.5468,206.3776,61.77108,45.89912
2157043,377.1989,204.8975,62.06638,45.693
2157059,381.6859,203.8829,62.34586,45.55082
2157076,386.4315,203.2236,62.6359,45.45805
2157093,390.2235,202.8123,62.86364,45.40002
2157110,392.9895,202.7341,63.02757,45.38896
2157128,395.5289,202.3207,63.17646,45.3305
2157145,397.4179,202.0663,63.28624,45.29445
2157161,398.7432,201.8305,63.36276,45.26101
2157178,399.8398,201.5842,63.42577,45.22602
2157193,400.7355,201.5029,63.47703,45.21446
2157211,401.4099,201.3721,63.5155,45.19587
2157228,402.1665,201.1489,63.55855,45.16409
2157244,402.4536,200.9474,63.57484,45.13539
2157260,403.017,200.3784,63.60677,45.05416
2157276,403.4806,199.3879,63.633,44.91219
2157293,403.9779,198.261,63.66106,44.74982
2157311,404.9745,197.9648,63.71716,44.70699
2157328,406.7844,197.9307,63.81846,44.70206
2157345,408.1963,197.3841,63.89698,44.62284
2157360,409.6063,196.2626,63.97496,44.45963
2157377,411.623,195.2348,64.08574,44.30924
2157394,413.4973,194.5749,64.18791,44.21228
2157412,415.2397,193.9237,64.28223,44.11628
2157428,416.7111,193.2434,64.36137,44.01565
2157444,418.0709,192.3702,64.43412,43.88601
2157461,419.2694,191.747,64.49791,43.79312
2157478,420.3733,191.7513,64.55641,43.79376
2157493,421.6679,191.6546,64.62469,43.77932
2157510,422.6136,191.3296,64.67435,43.73075
2157528,423.3639,190.9965,64.71363,43.68088
2157544,424.2202,190.6472,64.75832,43.6285
2157560,425.0287,190.3862,64.80036,43.58929
2157578,426.2634,189.7828,64.86433,43.49847
2157595,427.5768,188.3265,64.93205,43.27814
2157611,429.077,186.9185,65.00898,43.0636
2157628,431.4737,185.7494,65.13097,42.88431
2157645,435.3687,183.6522,65.32686,42.56004
2157660,438.6093,181.1926,65.48764,42.17542
2157678,442.0459,179.3061,65.65602,41.87719
2157693,446.5615,177.7896,65.87399,41.63544
2157711,450.2307,176.54,66.04841,41.43484
2157729,453.35,175.9051,66.19483,41.33245
2157745,456.1054,175.6948,66.32278,41.29847
2157761,458.6504,175.9289,66.43982,41.3363
2157778,460.6947,176.1079,66.53304,41.36519
2157794,462.8493,176.5033,66.63053,41.42893
2157812,464.4375,177.0645,66.70191,41.51919
2157829,465.9002,177.4253,66.76729,41.57708
2157845,467.2117,177.8004,66.82561,41.63715
2157862,468.1354,178.2415,66.86653,41.70766
2157879,469.1118,178.7033,66.90963,41.78131
2157895,469.8102,179.481,66.94036,41.90497
2157913,470.5836,180.2083,66.9743,42.02016
2157930,471.1871,181.1323,67.00073,42.16592
2157946,471.7555,182.4033,67.02556,42.36533
2157963,472.3002,183.676,67.04931,42.56374
2157980,472.8575,184.9133,67.07356,42.75543
2157995,473.5208,186.7071,67.10236,43.03125
2158012,474.1666,188.3734,67.13034,43.28526
2158036,474.7282,190.3363,67.15462,43.58179
2158048,475.2838,192.173,67.17858,43.85664
2158062,475.764,194.2372,67.19926,44.16254
2158079,476.1307,196.1109,67.21503,44.43747
2158094,476.5025,198.4094,67.231,44.77126
2158111,476.9067,200.7262,67.24832,45.10384
2158129,477.289,203.0976,67.26469,45.44028
2158145,477.7266,205.2065,67.2834,45.73615
2158161,478.0719,207.3549,67.29815,46.03437
2158179,478.4676,209.4693,67.31502,46.32478
2158195,478.8665,212.1015,67.332,46.68202
2158211,479.312,214.7742,67.35094,47.04001
2158229,479.5904,217.5195,67.36276,47.40278
2158245,479.9443,220.0244,67.37777,47.72948
2158262,480.1654,222.8461,67.38714,48.09264
2158278,480.2252,225.9813,67.38968,48.49025
2158295,480.804,229.6788,67.41416,48.95126
2158312,481.9186,233.0113,67.46117,49.3596
2158329,483.1703,236.17,67.51373,49.74048
2158346,484.5959,239.1487,67.57333,50.09426
2158362,485.7278,242.0721,67.62042,50.43647
2158384,486.5721,245.1905,67.65543,50.79614
2158401,487.1515,247.561,67.67941,51.06589
2158415,487.381,250.1193,67.68888,51.35353
2158432,487.472,252.4731,67.69264,51.61501
2158450,487.4664,254.8101,67.69241,51.87169
2158464,487.3294,257.4283,67.68675,52.15581
2158482,487.147,260.1833,67.67921,52.45092
2158500,486.6257,262.8058,67.65765,52.7282
2158516,485.7616,265.6509,67.62183,53.02509
2158531,484.9222,268.3337,67.58692,53.30134
2158550,483.9164,271.4372,67.54496,53.61652
2158565,482.5886,274.5883,67.48933,53.93179
2158580,481.4346,277.5194,67.44078,54.22083
2158598,480.5124,280.4961,67.40182,54.51028
2158613,480.0427,283.6778,67.38194,54.8152
2158631,479.6068,286.585,67.36346,55.08984
2158648,478.7896,289.754,67.32873,55.38498
2158665,477.6161,292.3918,67.27868,55.62734
2158682,476.3391,295.0326,67.22398,55.867
2158697,475.0146,297.6646,67.16698,56.10296
2158717,473.2925,300.4196,67.09246,56.34689
2158732,471.4064,302.6313,67.01031,56.54047
2158748,469.5675,304.732,66.92969,56.72253
2158765,467.3933,306.8752,66.83366,56.90648
2158781,464.4996,308.7086,66.7047,57.06241
2158798,461.4495,310.4886,66.56728,57.21255
2158814,457.2003,312.5001,66.37327,57.38077
2158832,453.0558,314.2072,66.1811,57.52232
2158849,448.6329,315.2534,65.97275,57.60854
2158865,442.7919,316.4936,65.69228,57.71021
2158883,437.7283,317.6373,65.44413,57.80347
2158899,432.4727,318.8752,65.1815,57.90388
