Time Stamp(ms),Intersection,,Angle,
,x,y,x,y
1960092,316.1039,239.2236,57.67832,50.1031
1960110,315.847,239.2494,57.65728,50.10614
1960127,315.5684,239.3885,57.63442,50.12252
1960143,315.277,239.3429,57.61048,50.11715
1960159,314.9604,239.3636,57.58443,50.11959
1960175,314.6585,239.0532,57.55956,50.08301
1960192,313.9872,239.007,57.50414,50.07756
1960212,313.8095,239.3562,57.48944,50.11872
1960227,313.3457,239.8798,57.45102,50.18031
1960243,312.9765,240.3743,57.42038,50.23833
1960265,313.0175,241.0381,57.42378,50.31601
1960278,312.9866,241.6206,57.42122,50.38395
1960291,313.2035,242.5365,57.43922,50.49039
1960311,313.5462,243.233,57.46764,50.57101
1960328,314.0077,243.9649,57.50583,50.65544
1960343,314.5796,244.8835,57.55305,50.76098
1960361,315.486,245.6771,57.62765,50.85177
1960377,316.2072,246.202,57.68678,50.91162
1960393,317.2539,246.5238,57.77227,50.94825
1960411,318.1741,246.7414,57.84708,50.97298
1960428,319.1702,246.9504,57.92772,50.9967
1960444,320.4146,247.3175,58.02795,51.03832
1960460,321.4596,247.8529,58.11169,51.09889
1960477,322.5753,248.6377,58.20066,51.18739
1960496,323.422,249.4505,58.26789,51.27868
1960513,324.1508,250.3351,58.32555,51.37762
1960530,324.576,251.3141,58.3591,51.48664
1960548,324.8954,252.1498,58.38427,51.57928
1960565,324.8983,253.1116,58.38449,51.68543
1960579,324.8856,254.2061,58.3835,51.80564
1960594,324.7025,255.4285,58.36908,51.93913
1960613,324.4162,256.5825,58.3465,52.06442
1960629,323.0336,257.1378,58.23708,52.12447
1960645,321.0309,257.6212,58.07738,52.17661
1960662,318.0338,258.2717,57.83569,52.24658
1960679,315.1471,259.2744,57.5998,52.35399
1960696,311.9972,260.5501,57.33885,52.48992
1960713,307.1585,262.0646,56.93066,52.65019
1960729,302.0653,263.4163,56.49112,52.79225
1960746,297.0913,265.0146,56.05181,52.95905
1960762,291.1956,267.1398,55.51781,53.17884
1960779,285.7218,268.877,55.00869,53.35686
1960795,279.2375,270.8568,54.38839,53.55793
1960811,273.3102,272.8127,53.80448,53.75472
1960828,267.1329,275.1071,53.17813,53.98324
1960844,261.4828,277.2023,52.58875,54.18975
1960862,256.1821,279.2517,52.02103,54.38977
1960878,251.3274,281.1775,51.48811,54.57597
1960894,246.628,283.1497,50.96009,54.76491
1960913,242.9406,284.7595,50.5372,54.91782
1960928,239.7223,286.2548,50.1618,55.05883
1960945,236.295,287.7315,49.75544,55.19712
1960962,233.5591,288.9316,49.42608,55.30881
1960978,231.417,290.1361,49.16508,55.42027
1960994,229.2008,291.3424,48.89214,55.53128
1961011,227.52,292.5055,48.68312,55.63772
1961027,225.7297,293.727,48.45856,55.74888
1961049,223.7211,294.8006,48.20424,55.84606
1961059,221.817,295.8473,47.96079,55.94035
1961076,220.0439,296.9139,47.732,56.03595
1961097,218.1433,297.836,47.48452,56.11823
1961116,216.3948,298.6261,47.25475,56.18844
1961131,214.5965,299.3059,47.01635,56.24865
1961143,212.6156,300.1222,46.75126,56.3207
1961159,210.67,300.8724,46.48832,56.38668
1961182,209.0221,301.4641,46.26361,56.43855
1961196,207.7389,301.9979,46.08734,56.48524
1961209,206.4504,302.5431,45.90921,56.53279
1961232,205.5982,303.2433,45.79076,56.59369
1961246,205.3361,303.9161,45.75423,56.65203
1961259,205.5206,304.7272,45.77996,56.72212
1961276,206.2359,305.6068,45.87945,56.79783
1961293,207.7295,306.333,46.08604,56.86012
1961310,209.0547,306.998,46.26807,56.91696
1961326,210.9612,307.4309,46.52784,56.95388
1961343,212.9495,307.9562,46.79612,56.99858
1961360,215.6843,308.4556,47.16081,57.04097
1961377,218.0824,308.9934,47.47654,57.08651
1961393,221.1655,309.6632,47.87696,57.14308
1961414,223.6467,310.2458,48.19476,57.19214
1961427,226.0678,310.873,48.50113,57.24482
1961448,228.3434,311.514,48.78573,57.29849
1961465,231.1195,312.3149,49.12862,57.36534
1961479,233.7564,313.0511,49.44998,57.42657
1961494,236.447,313.7506,49.77361,57.48457
1961511,238.9025,314.3013,50.06522,57.53009
1961529,240.7186,314.679,50.27865,57.56126
1961547,242.7154,315.0226,50.51112,57.58955
1961560,245.3104,315.4494,50.80986,57.62465
1961577,247.865,316.1074,51.10025,57.67862
1961592,250.2975,316.6832,51.37343,57.7257
1961610,252.2295,317.0642,51.58809,57.7568
1961626,254.3006,317.4666,51.81599,57.78958
1961644,256.4764,317.8585,52.05294,57.82145
1961661,258.7535,318.2487,52.29826,57.85313
1961677,261.5468,318.7065,52.59553,57.89022
1961693,264.255,319.1337,52.87993,57.92477
1961711,266.489,319.3628,53.11177,57.94327
1961728,269.1642,319.6221,53.38614,57.96418
1961744,271.8215,319.965,53.65522,57.9918
1961760,274.6925,320.1807,53.94213,58.00915
1961777,278.7347,320.3553,54.33949,58.02319
1961793,283.4643,320.5824,54.79488,58.04142
1961811,288.2893,320.837,55.24911,58.06185
1961827,293.9319,321.0921,55.76747,58.08228
1961844,299.3115,321.3717,56.24914,58.10466
1961861,304.4842,321.7773,56.70115,58.13707
1961877,309.4312,322.3162,57.1235,58.18004
1961894,314.2227,322.7768,57.5236,58.21668
1961911,318.7564,323.1526,57.89426,58.24653
1961927,322.869,323.4725,58.22401,58.27188
1961945,326.9212,323.9102,58.54303,58.30653
1961962,330.5142,324.5497,58.82113,58.35703
1961980,333.5475,325.0988,59.05247,58.40027
1961995,336.7196,325.7523,59.29113,58.4516
1962012,339.0938,326.2141,59.46759,58.48777
1962028,341.6793,326.7532,59.65767,58.52992
1962045,344.5153,327.3504,59.86373,58.57648
1962063,347.0482,327.8116,60.04563,58.61236
1962081,348.9727,328.5546,60.18252,58.67
1962097,351.3193,329.5746,60.34789,58.74883
1962113,353.0623,330.2877,60.46965,58.80373
1962130,354.7963,330.9222,60.58988,58.85242
1962147,357.1468,331.4644,60.75144,58.89393
1962165,358.8772,331.3674,60.86935,58.88651
1962180,360.5578,331.3559,60.98304,58.88563
1962196,362.1584,331.5191,61.09056,58.89811
1962212,364.2148,331.7407,61.22765,58.91505
1962230,366.5937,331.9657,61.38474,58.93222
1962249,368.8791,332.1981,61.5342,58.94994
1962264,371.3449,332.3235,61.69386,58.9595
1962280,373.6313,332.578,61.84044,58.97887
1962296,376.0974,333.0705,61.99697,59.0163
1962313,378.5956,333.3189,62.15393,59.03515
1962332,381.4007,333.4715,62.32825,59.04671
1962351,383.6769,333.4812,62.46824,59.04745
1962366,385.8445,333.5421,62.60033,59.05207
1962382,388.0891,333.4545,62.73589,59.04543
1962400,390.0906,332.4915,62.85572,58.97228
1962417,391.6844,331.5576,62.95045,58.90105
1962437,393.2087,329.8697,63.04049,58.77156
1962450,394.3255,328.4247,63.1061,58.65993
1962465,395.3492,326.8859,63.16598,58.54028
1962480,395.9686,325.4795,63.20209,58.43019
1962497,397.0248,324.295,63.26347,58.33694
1962514,397.7476,323.4123,63.30531,58.26712
1962530,398.3994,322.6063,63.34295,58.20313
1962546,399.2639,321.9568,63.39272,58.15139
1962563,399.9351,321.42,63.43123,58.10852
1962580,400.3248,321.1248,63.45355,58.0849
1962598,400.4229,320.6843,63.45916,58.0496
1962615,399.9772,319.9626,63.43364,57.99161
1962630,400.0148,319.3477,63.4358,57.94205
1962648,399.9879,318.7792,63.43426,57.89611
1962663,399.7807,318.3504,63.42238,57.86138
1962681,399.517,318.0209,63.40725,57.83464
1962699,399.0308,317.5704,63.37931,57.79803
1962715,397.8615,316.6846,63.31189,57.72582
1962732,397.0023,316.0702,63.26216,57.67557
1962748,396.0109,315.6061,63.20456,57.63752
1962765,394.8316,315.0092,63.13573,57.58845
1962782,393.5361,314.4892,63.05975,57.5456
1962799,391.9623,314.0395,62.96691,57.50846
1962815,389.6041,313.6116,62.82668,57.47306
1962832,387.2355,313.398,62.68448,57.45536
1962846,384.2393,313.7707,62.50262,57.48623
1962864,381.6903,314.3471,62.34613,57.53387
1962882,378.6816,314.8738,62.15931,57.5773
1962898,375.8554,314.9891,61.98168,57.5868
1962915,372.2602,315.0712,61.7527,57.59355
1962934,369.4207,315.1744,61.5694,57.60204
1962947,366.5978,315.3325,61.38502,57.61504
1962964,363.6903,315.446,61.19279,57.62437
1962981,361.0103,315.3541,61.01351,57.61682
1962998,358.5308,315.0479,60.84582,57.59164
1963014,355.9669,314.6794,60.67055,57.56129
1963031,353.7595,314.5494,60.5181,57.55057
1963048,351.58,314.5292,60.36616,57.5489
1963065,349.8279,314.6133,60.24298,57.55584
1963080,347.7687,314.7574,60.09701,57.56772
1963100,346.1452,314.8821,59.98101,57.57799
1963114,344.2549,315.1284,59.84491,57.59826
1963132,342.1944,315.4773,59.69529,57.62693
1963151,339.5141,315.9667,59.49863,57.66709
1963166,336.6347,316.4209,59.28479,57.70427
1963181,333.5528,316.9901,59.05288,57.75076
1963196,329.377,317.5563,58.73359,57.79689
1963215,325.5641,318.0521,58.43683,57.83717
1963232,321.8953,318.6239,58.14649,57.88353
1963250,318.3131,319.1323,57.85835,57.92466
1963267,315.0081,319.5778,57.58836,57.96061
1963281,311.6801,320.1817,57.31238,58.00923
1963299,308.5169,320.692,57.04617,58.05022
1963315,305.3417,321.1491,56.77505,58.08685
1963332,302.654,321.7143,56.54245,58.13204
1963347,300.135,322.2096,56.32183,58.17154
1963364,297.7242,322.71,56.10827,58.21137
1963380,295.7577,323.2997,55.93229,58.2582
1963396,293.6981,323.9238,55.74626,58.30761
1963415,291.8029,324.3937,55.57349,58.34472
1963432,289.7875,324.6758,55.38808,58.36697
1963450,287.6605,324.7845,55.19049,58.37553
1963465,285.5116,324.9894,54.98887,58.39166
1963483,283.557,325.277,54.8037,58.41428
1963499,281.3448,325.5022,54.59206,58.43197
1963515,278.8981,325.7842,54.3554,58.4541
1963533,276.3899,326.1107,54.10992,58.47969
1963553,273.5309,326.4227,53.82652,58.50409
1963568,270.6587,326.7056,53.5379,58.5262
1963582,267.8657,326.9876,53.25341,58.54821
1963599,264.8664,327.3541,52.94363,58.57677
1963614,261.8183,327.676,52.62421,58.60182
1963632,258.8126,327.8405,52.30458,58.6146
1963650,256.3684,327.8975,52.04123,58.61903
1963667,253.8383,327.9674,51.76531,58.62446
1963682,251.6041,328.0675,51.51883,58.63224
1963699,249.571,328.255,51.29218,58.64679
1963716,247.4579,328.4627,51.05423,58.66289
1963732,245.6284,328.6608,50.8462,58.67823
1963751,243.9613,328.8382,50.65503,58.69195
1963766,242.175,329.0787,50.44844,58.71055
1963783,240.7663,329.2889,50.28423,58.72679
1963801,239.6588,329.4712,50.15434,58.74085
1963817,238.7346,329.6809,50.0454,58.75702
1963831,237.744,329.8312,49.92807,58.7686
1963851,236.9628,329.7759,49.83516,58.76434
1963868,236.2525,329.626,49.75035,58.75279
1963882,235.5701,329.5211,49.6686,58.7447
1963900,234.915,329.3545,49.58987,58.73185
1963922,234.1027,329.216,49.49188,58.72115
1963939,233.4772,329.0757,49.41616,58.71032
1963953,232.7554,328.9252,49.32848,58.69869
1963969,232.1322,328.7191,49.25254,58.68274
1963983,231.5914,328.4672,49.18644,58.66323
1963998,231.0113,328.3113,49.11535,58.65115
1964016,230.409,328.077,49.04131,58.63297
1964032,229.8697,327.9527,48.97483,58.62332
1964053,229.3381,327.7866,48.90913,58.61041
1964072,228.6914,327.6367,48.82898,58.59877
1964086,228.0484,327.4603,48.74901,58.58504
1964102,227.4132,327.2182,48.66978,58.56618
1964120,226.9839,327.1076,48.61609,58.55757
1964133,226.6481,326.9207,48.57401,58.543
1964149,226.1757,326.7356,48.51469,58.52855
1964166,225.8241,326.6924,48.47046,58.52517
1964182,225.6941,326.6971,48.45408,58.52554
1964199,225.644,326.3391,48.44777,58.49755
1964215,225.7558,325.5284,48.46185,58.43403
1964233,225.8684,324.6055,48.47603,58.36143
1964249,225.8691,323.4943,48.47612,58.27361
1964267,225.885,322.6052,48.47813,58.20304
1964286,225.8129,321.7776,48.46904,58.13709
1964302,225.6249,321.0202,48.44535,58.07653
1964317,225.4662,320.2326,48.42534,58.01332
1964334,225.209,319.4961,48.39288,57.95402
1964350,224.8712,318.6573,48.35017,57.88624
1964367,224.6831,317.7135,48.32636,57.80967
1964383,224.3766,316.5627,48.28751,57.71587
1964399,223.8262,314.9957,48.21761,57.58734
1964417,223.3978,313.6464,48.16306,57.47594
1964433,222.9561,312.256,48.1067,57.36043
1964450,222.2361,310.2225,48.01457,57.19018
1964476,221.6638,308.8026,47.9411,57.07037
1964491,221.1299,307.2665,47.87237,56.93987
1964503,220.5854,305.9287,47.80209,56.82546
1964516,219.9066,304.1951,47.7142,56.67617
1964532,219.3358,302.5247,47.64006,56.53119
1964554,219.0572,300.5385,47.60381,56.35735
1964574,219.0654,299.3291,47.60487,56.2507
1964585,218.9531,297.9883,47.59024,56.13177
1964598,218.6061,296.3891,47.54499,55.98897
1964615,218.0609,294.7354,47.47374,55.84018
1964632,217.466,293.3571,47.39576,55.71528
1964651,216.5524,292.0093,47.27554,55.59238
1964667,215.589,290.653,47.1482,55.46791
1964682,214.5031,289.4389,47.00391,55.35583
1964698,213.4959,288.2953,46.86938,55.24967
1964716,212.2326,286.9736,46.69969,55.12627
1964734,211.2122,285.811,46.56186,55.01709
1964750,210.0577,284.6884,46.40505,54.91109
1964766,209.1152,283.6807,46.27636,54.81548
1964782,208.1368,282.6259,46.14212,54.71489
1964799,207.1931,281.6667,46.01204,54.62299
1964815,206.3401,280.8697,45.89391,54.54632
1964833,205.6299,280.2349,45.79519,54.48504
1964849,204.973,279.6976,45.70354,54.43304
1964868,204.6888,279.4437,45.66381,54.40841
1964881,204.3301,279.2128,45.61358,54.38599
1964898,204.0424,278.943,45.57322,54.35977
1964914,203.9277,278.6615,45.55711,54.33237
1964932,204.1621,278.6583,45.59002,54.33205
1964949,204.247,278.5154,45.60192,54.31813
1964966,204.3719,278.5084,45.61944,54.31745
1964981,204.5768,278.5137,45.64814,54.31797
1964999,204.7713,278.5893,45.67535,54.32534
1965013,204.7499,278.6589,45.67236,54.33212
1965031,204.6178,278.6812,45.65387,54.33429
1965049,204.5316,278.5087,45.64181,54.31748
1965069,204.3414,278.2693,45.61515,54.29413
1965084,203.9118,277.9549,45.55489,54.26343
1965099,203.3437,277.6385,45.47497,54.23248
1965118,202.8306,277.4093,45.4026,54.21004
1965135,202.2189,277.1432,45.31608,54.18396
1965152,201.5228,276.7432,45.21729,54.14467
1965168,200.8804,276.3754,45.12583,54.10849
1965182,200.3678,276.0776,45.05264,54.07915
1965201,200.0862,275.8574,45.01235,54.05743
1965218,199.8676,275.654,44.98103,54.03734
1965232,199.6606,275.381,44.95135,54.01035
1965249,199.496,275.1573,44.92772,53.98821
1965274,199.3787,275.0917,44.91087,53.98171
1965296,199.1829,275.0822,44.88272,53.98078
1965310,199.2216,275.0703,44.88829,53.9796
1965324,199.2656,275.0411,44.89461,53.9767
1965336,199.4436,274.9146,44.92019,53.96416
1965350,199.8101,274.7226,44.97279,53.94511
1965374,199.9805,274.5988,44.99721,53.93283
1965384,200.1921,274.4393,45.0275,53.91698
1965400,200.2519,274.2748,45.03606,53.90063
1965417,200.217,274.1516,45.03107,53.88837
1965434,200.099,274.0789,45.01418,53.88113
1965451,199.8929,274.0013,44.98466,53.87341
1965469,199.752,273.9366,44.96445,53.86697
1965484,199.6627,273.7883,44.95164,53.85219
1965501,199.575,273.6148,44.93906,53.83489
1965518,199.4542,273.5193,44.92171,53.82536
1965536,199.4949,273.5046,44.92756,53.8239
1965552,199.5528,273.4338,44.93588,53.81683
1965568,199.6348,273.4722,44.94764,53.82066
1965584,199.7851,273.4549,44.9692,53.81893
1965602,199.9651,273.4903,44.995,53.82246
1965622,200.1284,273.4493,45.01839,53.81837
1965636,200.2935,273.3729,45.04202,53.81074
1965655,200.4405,273.2037,45.06303,53.79383
1965670,200.5497,273.0004,45.07862,53.77351
1965685,200.6211,272.6559,45.08883,53.73901
1965703,200.6016,272.2933,45.08604,53.70264
1965719,200.529,272.0262,45.07567,53.6758
1965735,200.5801,271.8474,45.08297,53.65783
1965750,200.6591,271.688,45.09425,53.64178
1965767,200.7784,271.6273,45.11128,53.63567
1965788,200.9102,271.6079,45.13008,53.63372
1965803,201.071,271.6223,45.153,53.63517
1965817,201.1967,271.5869,45.17089,53.6316
1965835,201.2866,271.5521,45.18369,53.62809
1965852,201.4644,271.457,45.209,53.61852
1965869,201.7191,271.3917,45.24519,53.61193
1965884,202.0423,271.3204,45.29105,53.60474
1965904,202.4683,271.298,45.35138,53.60249
1965921,203.0232,271.2386,45.42978,53.59649
1965935,204.3195,271.086,45.61209,53.58109
1965952,206.6025,271.093,45.9303,53.58179
1965969,209.4453,271.0455,46.3215,53.577
1965987,212.0326,271.1351,46.67274,53.58604
1966002,214.6105,271.1444,47.01821,53.58698
1966018,217.3624,270.8969,47.38215,53.56198
1966036,219.9087,270.5611,47.71448,53.52802
1966052,222.3009,270.2626,48.02288,53.49778
1966069,225.0715,270.0367,48.3755,53.47486
1966086,227.6989,269.9503,48.70545,53.4661
1966103,229.9302,269.7833,48.9823,53.44914
1966120,231.7389,269.5815,49.20448,53.42862
1966136,233.5594,269.3657,49.42612,53.40667
1966153,235.3094,269.3019,49.63731,53.40017
1966173,236.8753,269.3981,49.82473,53.40997
1966187,238.0455,269.3893,49.96384,53.40907
1966202,238.97,269.3193,50.0732,53.40195
1966220,239.5663,269.2337,50.14345,53.39323
1966236,239.8405,269.2076,50.1757,53.39056
1966252,240.229,269.2422,50.2213,53.3941
1966270,240.2933,269.2853,50.22884,53.39848
1966286,240.032,269.2493,50.19819,53.39482
1966303,239.9537,269.2206,50.189,53.39189
1966320,239.6571,269.1926,50.15413,53.38903
1966337,239.3727,269.0748,50.12066,53.37703
1966354,239.4056,269.1317,50.12454,53.38284
1966371,239.7614,269.157,50.1664,53.38541
1966387,240.6177,269.0726,50.26684,53.3768
1966404,242.2282,269.0071,50.45461,53.37012
1966420,243.6451,268.9351,50.61859,53.36278
1966435,246.407,268.7256,50.93497,53.3414
1966453,249.0668,268.5764,51.23562,53.32615
1966469,253.6212,267.881,51.74147,53.25497
1966496,257.176,266.8074,52.1286,53.14461
1966505,262.3871,265.9918,52.68417,53.06039
1966519,270.2746,265.2408,53.499,52.98254
1966538,279.517,264.3227,54.41552,52.887
1966553,290.2737,263.0741,55.43297,52.75637
1966569,301.038,261.5318,56.40121,52.59394
1966588,311.8688,260.0577,57.32814,52.43755
1966604,322.7054,258.9168,58.21101,52.31575
1966622,331.8449,258.3389,58.923,52.2538
1966637,339.9339,257.7902,59.52958,52.19481
1966653,347.1961,257.3985,60.05619,52.1526
1966672,353.7928,257.2341,60.5204,52.13486
1966687,359.4898,257.299,60.91089,52.14187
1966703,364.6534,257.4714,61.25673,52.16046
1966720,369.0765,257.1613,61.54704,52.12701
1966736,373.9932,256.844,61.86351,52.09272
1966753,378.5885,256.6232,62.15349,52.06883
1966770,382.9586,255.9711,62.4242,51.99813
1966789,387.4915,254.6667,62.69992,51.85603
1966804,391.0199,252.7213,62.91103,51.64241
1966820,394.6323,250.3613,63.12407,51.38054
1966836,398.5731,248.3837,63.35296,51.15878
1966854,400.9109,246.9066,63.48705,50.99173
1966870,402.6848,245.239,63.58796,50.80169
1966890,403.907,243.6769,63.65706,50.62226
1966906,405.0524,242.5006,63.72153,50.48623
1966921,406.2496,241.5447,63.7886,50.37511
1966938,407.0971,240.9355,63.83589,50.30401
1966953,408.3163,240.1391,63.90363,50.21076
1966971,409.4557,239.3725,63.96665,50.12064
1966989,410.643,238.6744,64.03201,50.03828
1967008,412.0557,237.9895,64.10939,49.95721
1967024,413.3378,237.5125,64.17925,49.90057
1967038,414.9871,237.085,64.2686,49.84971
1967052,416.674,236.5905,64.35939,49.79075
1967071,418.1359,236.1183,64.43758,49.7343
1967089,419.5701,235.6758,64.51387,49.68129
1967105,421.2114,235.0579,64.60065,49.60706
1967125,422.5585,234.7451,64.67146,49.5694
1967138,424.0351,234.2849,64.74866,49.5139
1967153,425.7854,233.6217,64.83961,49.43367
1967170,427.5023,232.5648,64.92822,49.30528
1967189,429.063,231.4065,65.00826,49.1638
1967210,430.7003,230.0354,65.09173,48.99528
1967226,431.9459,228.4507,65.15488,48.79907
1967239,432.5656,226.7234,65.18618,48.58345
1967254,433.2062,224.4949,65.21847,48.30251
1967272,433.9349,222.8265,65.25509,48.09015
1967290,434.6288,221.799,65.28987,47.95847
1967305,435.4864,221.4254,65.33273,47.91043
1967323,436.1066,221.0993,65.36365,47.86842
1967339,436.4988,221.0128,65.38316,47.85727
1967354,436.9146,221.0862,65.40381,47.86673
1967373,437.2321,221.2414,65.41956,47.88674
1967389,437.4368,221.6812,65.4297,47.94333
1967406,437.776,221.883,65.44649,47.96926
1967423,438.1503,221.9546,65.46499,47.97845
1967437,438.5779,221.7693,65.4861,47.95466
1967453,438.8613,221.2769,65.50007,47.8913
1967473,438.996,220.8697,65.5067,47.8388
1967490,439.0535,220.4834,65.50953,47.78889
1967506,438.9977,220.1297,65.50678,47.74312
1967525,438.854,219.7668,65.49971,47.69607
1967539,438.7306,219.3318,65.49362,47.63954
1967557,438.4178,218.9447,65.4782,47.58915
1967571,437.9169,218.5683,65.45346,47.54006
1967588,437.3756,218.2177,65.42667,47.49425
1967605,436.6903,217.9444,65.39267,47.45847
1967621,435.9711,217.5668,65.3569,47.40899
1967639,435.2509,217.1313,65.32098,47.35178
1967655,434.4207,216.3904,65.27945,47.25417
1967671,433.7575,215.5785,65.24619,47.1468
1967687,433.0455,214.5789,65.21037,47.014
1967703,432.08,213.2925,65.16166,46.84213
1967723,431.213,212.2231,65.11776,46.69841
