Time Stamp(ms),Intersection,,Angle,
,x,y,x,y
357293.6,313.3275,248.2447,57.44952,51.14311
357313.2,313.5904,248.9365,57.4713,51.22099
357327.2,314.0179,249.629,57.50668,51.29868
357345.9,314.2346,250.1102,57.52459,51.3525
357362.7,314.5396,250.4923,57.54976,51.39516
357380.1,314.7434,250.8931,57.56656,51.43982
357393.7,314.8941,251.4639,57.57897,51.50327
357410.5,315.0069,251.9163,57.58826,51.55343
357428.4,315.0612,252.2925,57.59273,51.59506
357444.7,314.985,252.4575,57.58646,51.6133
357462.1,314.7677,252.5555,57.56856,51.62411
357478,314.4305,252.686,57.54076,51.63852
357493.3,313.9225,252.8091,57.49879,51.6521
357512.1,313.5512,252.9903,57.46806,51.67208
357527.9,313.1637,253.2389,57.43592,51.69945
357544.2,312.8287,253.3694,57.4081,51.71381
357561.1,312.4552,253.4011,57.37703,51.71729
357576.4,312.2699,253.5717,57.36159,51.73604
357594,312.1978,253.7049,57.35558,51.75067
357610.5,312.1404,253.8125,57.3508,51.76248
357627,312.1238,253.9867,57.34941,51.78159
357643.2,312.1632,254.1915,57.3527,51.80403
357660.2,312.1359,254.3203,57.35042,51.81814
357678.1,312.1155,254.3692,57.34872,51.82349
357694.3,312.2029,254.4234,57.35601,51.82942
357710.3,312.4349,254.5106,57.37534,51.83896
357727.1,312.6425,254.6645,57.39261,51.85579
357746.2,312.7764,254.8461,57.40376,51.87563
357763.1,312.8217,255.1156,57.40752,51.90504
357777.4,312.8887,255.6249,57.41309,51.9605
357793.2,312.825,255.9997,57.40779,52.00123
357810.3,312.5532,256.1434,57.38518,52.01683
357827.5,312.152,255.9136,57.35176,51.99188
357843.8,311.7205,255.714,57.31575,51.9702
357860.3,311.2964,255.615,57.28029,51.95943
357876.3,311.0859,255.7301,57.26266,51.97194
357893.6,310.8104,255.7068,57.23956,51.96941
357911.9,310.5847,255.4319,57.22062,51.9395
357928.1,310.6384,254.6874,57.22513,51.85829
357947.3,310.3373,253.868,57.19984,51.76857
357960.1,310.0883,253.1581,57.17889,51.69056
357977.2,309.642,252.5934,57.14129,51.6283
357993,309.1944,252.1932,57.1035,51.58407
358010.6,308.7258,251.7184,57.06386,51.53151
358029.3,308.1965,251.1104,57.01899,51.464
358045,307.1688,250.0986,56.93153,51.35121
358062,306.2034,249.2106,56.84901,51.25177
358078,305.1559,248.4198,56.75906,51.16285
358094.8,303.998,247.7222,56.65912,51.08412
358113.7,303.0175,247.0297,56.57407,51.00571
358127.7,301.786,246.0802,56.46672,50.89775
358144.9,300.3629,244.8243,56.34189,50.75418
358162.1,298.8576,243.7373,56.20897,50.62922
358178.8,297.321,242.3338,56.07232,50.46687
358195.3,295.8917,241.0038,55.94434,50.31199
358211.8,294.0049,239.0673,55.77408,50.08466
358234.2,292.8263,237.4708,55.66697,49.89562
358245.3,291.0297,235.5318,55.50257,49.66401
358260.9,289.0337,233.5804,55.31829,49.42867
358277.9,287.1223,231.8253,55.1402,49.21504
358296.2,285.2913,230.3104,54.96809,49.02917
358311.8,283.6467,228.9383,54.81224,48.85961
358329.1,282.1014,227.7204,54.6647,48.70814
358345.8,281.0221,226.3856,54.56101,48.54107
358361.5,279.5267,224.7454,54.41647,48.33425
358378,278.0663,223.0818,54.27431,48.12276
358395.5,276.8759,221.5646,54.15771,47.92834
358412.5,275.5732,220.1186,54.02936,47.74168
358428.2,274.1563,218.5651,53.88885,47.53963
358445,272.603,217.0596,53.73371,47.34234
358462.9,271.1595,215.7561,53.58851,47.17033
358480.3,269.7579,214.7042,53.44656,47.03069
358496,268.119,213.7047,53.27936,46.89734
358512.8,266.6435,212.872,53.12771,46.78571
358530.7,265.2715,212.0935,52.98573,46.68095
358546.8,263.9159,211.3954,52.84452,46.58665
358564.9,262.3224,210.675,52.67736,46.48901
358580.3,260.8306,209.9387,52.51968,46.38882
358600.5,259.4609,209.136,52.37392,46.27921
358615,258.5506,208.3121,52.2765,46.16623
358629.3,257.6871,207.3071,52.1837,46.02778
358646.5,256.5406,206.2454,52.05989,45.88076
358670.7,255.526,205.4352,51.94974,45.76805
358680.8,254.3123,204.702,51.81726,45.66566
358700.8,253.2098,204.0675,51.69625,45.57674
358713.8,252.1454,203.5724,51.57879,45.50716
358730.2,250.8478,203.1199,51.43478,45.44342
358750.4,249.5227,202.8497,51.28677,45.40529
358767.9,248.3623,202.5293,51.15637,45.36001
358781.9,247.0929,202.2115,51.01287,45.31503
358798.3,245.9519,201.8348,50.88312,45.26162
358814.4,244.8189,201.604,50.75357,45.22883
358830.1,243.6057,201.4314,50.61404,45.20431
358846.3,242.2972,201.3739,50.46263,45.19612
358863.7,241.1358,201.3713,50.32742,45.19576
358880,239.9511,201.6326,50.18869,45.23291
358896.6,238.7039,201.6698,50.04176,45.23818
358912.8,237.1818,201.5099,49.86124,45.21546
358933.4,235.8058,201.4053,49.69688,45.20059
358948.4,234.1644,201.4414,49.49934,45.20572
358965.7,232.6772,201.5439,49.31897,45.22029
358980.3,231.2232,201.5197,49.14133,45.21686
358996,229.5714,201.3237,48.93799,45.18897
359016,228.0258,201.2161,48.7462,45.17367
359029.5,226.4082,201.0997,48.5439,45.15709
359045.8,224.9123,200.9977,48.35537,45.14256
359062.9,223.5293,200.9452,48.17982,45.13507
359079.4,222.2067,200.9464,48.0108,45.13525
359095.6,220.9793,200.8855,47.85294,45.12656
359112.9,219.6233,200.8509,47.67743,45.12163
359129.9,218.2993,200.8249,47.50492,45.11791
359147.2,216.8734,200.8566,47.31784,45.12244
359164.2,215.2015,200.8404,47.09679,45.12013
359184.5,213.7476,200.997,46.90306,45.14245
359199.3,212.2924,201.1748,46.70775,45.16778
359213.4,211.1638,201.1555,46.5553,45.16504
359229.9,210.1313,201.1498,46.41507,45.16422
359247.3,209.2519,201.0938,46.29505,45.15624
359263.7,208.4902,201.1283,46.19068,45.16116
359279.3,207.7706,201.2325,46.09171,45.176
359295.9,207.1889,201.3865,46.01145,45.19791
359313.6,206.6205,201.517,45.9328,45.21648
359330.9,206.4897,201.9172,45.91466,45.2733
359347.2,206.0884,202.2175,45.85896,45.31588
359369.6,205.7729,202.4236,45.81509,45.34506
359382.7,205.4625,202.6347,45.77186,45.37492
359398.6,205.2885,202.9472,45.74759,45.41906
359413.1,205.2237,203.5095,45.73856,45.49831
359431.3,205.2269,204.0869,45.739,45.57946
359447.2,205.2019,204.755,45.7355,45.67308
359464.4,205.052,205.216,45.71459,45.73748
359480.5,204.7934,205.489,45.67844,45.77555
359497.1,204.7428,206.0655,45.67137,45.85578
359513.7,204.7956,206.8571,45.67876,45.96556
359530.6,204.8421,207.7091,45.68525,46.08324
359547.4,204.7705,208.7539,45.67524,46.22686
359563.8,204.7614,209.5957,45.67397,46.34204
359580.8,204.8053,210.269,45.6801,46.43382
359597.6,204.633,210.8692,45.656,46.51536
359613.4,204.4363,211.7607,45.62845,46.63604
359630.3,204.1957,212.6843,45.59473,46.7605
359648,204.0757,213.6721,45.57789,46.89296
359664.2,203.9061,214.6476,45.55407,47.02316
359680.2,203.8233,215.8083,45.54244,47.17724
359697.7,203.8547,217.0528,45.54685,47.34146
359713.6,203.9273,218.5224,45.55706,47.53407
359731.2,204.0458,220.1091,45.5737,47.74044
359748.2,204.1584,221.7484,45.5895,47.95197
359766.4,204.0317,223.7566,45.57172,48.20875
359782.2,203.9035,225.8615,45.55372,48.47517
359797.8,203.7821,228.157,45.53666,48.76254
359815.1,204.1254,231.2449,45.58487,49.144
359831.4,205.0149,234.6283,45.7094,49.55533
359848.2,206.6454,238.3667,45.93625,50.00189
359864.8,208.5967,242.2854,46.2053,50.46126
359881.4,210.046,245.3927,46.40345,50.81927
359897.4,211.4755,248.4764,46.59749,51.16923
359914.5,212.7336,251.2911,46.76713,51.48408
359931.2,213.9236,253.9061,46.92659,51.77275
359949.2,214.4372,256.3727,46.99512,52.04169
359966.1,214.3216,258.1699,46.97972,52.23564
359982.3,213.6553,259.839,46.89072,52.41425
359998.9,212.8994,261.2933,46.7894,52.56871
360018.3,211.8788,262.6444,46.65198,52.71124
360032.7,210.3506,263.9413,46.44491,52.84718
360049.1,208.9111,265.317,46.24841,52.99046
360069,207.075,267.009,45.9957,53.16537
360085.1,205.3822,268.9063,45.76066,53.35985
360100.4,203.6933,271.0284,45.52417,53.57527
360117.1,201.9107,273.5999,45.27238,53.8334
360133.8,199.9746,276.3161,44.99636,54.10266
360152.1,197.5574,279.5747,44.64798,54.42112
360168.3,195.0831,283.0041,44.28698,54.75101
360187.2,192.9089,285.9107,43.96606,55.02648
360202.4,190.4294,289.1821,43.59579,55.33204
360219.2,188.0524,292.1822,43.23651,55.60818
360236,185.528,295.2143,42.85023,55.88338
360252.9,182.9293,298.3282,42.44748,56.16199
360272.8,181.0406,300.898,42.15149,56.38893
360287,179.235,303.2558,41.8659,56.59478
360301.7,177.4932,305.5714,41.58796,56.79479
360319.7,176.1138,307.1897,41.36615,56.93332
360335.2,174.6723,308.5774,41.13271,57.05129
360355.2,174.6383,309.3734,41.12719,57.11863
360372.3,174.642,309.7467,41.12779,57.15012
360387.9,174.4915,310.2302,41.10331,57.19083
360404.1,174.6955,310.3688,41.13648,57.20248
360419.4,175.4525,310.2701,41.25927,57.19418
360436.3,176.2649,310.2407,41.39051,57.19171
360452.3,177.594,309.8854,41.60412,57.1618
360471.4,178.528,309.6304,41.75337,57.14031
360485.3,179.5015,309.4459,41.90821,57.12474
360502.8,180.1924,309.2729,42.01765,57.11014
360516.2,180.8888,309.1816,42.12757,57.10242
360533,181.7135,309.0195,42.25727,57.08871
360555.7,182.2161,308.8907,42.33604,57.07783
360569.8,182.7697,308.8001,42.42257,57.07016
360586,183.2494,308.844,42.49737,57.07387
360603.2,183.6924,308.9306,42.5663,57.0812
360619.4,183.9651,308.9638,42.60864,57.08401
360636.5,184.4827,308.9922,42.68887,57.08641
360654.3,184.8779,308.9086,42.74996,57.07934
360676.8,185.2089,308.8111,42.80106,57.07109
360688.2,185.6667,308.6482,42.87158,57.05729
360703.2,186.1271,308.5045,42.94235,57.04511
360720.8,186.7834,308.1928,43.04293,57.01867
360738,187.2951,307.8615,43.12113,56.99053
360755.9,187.8241,307.507,43.20177,56.96035
360774.5,188.5608,306.8032,43.31371,56.90033
360797.2,189.1613,306.407,43.40464,56.86645
360809.8,189.8112,306.0543,43.50276,56.83624
360820.6,190.5841,305.6382,43.61903,56.80053
360836.5,191.4612,305.2654,43.75042,56.76848
360853.1,192.5749,304.7888,43.91644,56.72744
360870.2,193.5457,304.228,44.06041,56.67901
360888.7,194.2349,303.5779,44.1622,56.62273
360904.2,194.3576,302.3726,44.18027,56.51793
360921.1,194.948,301.8255,44.26713,56.47017
360937,196.3565,301.8181,44.47333,56.46953
360952.7,198.3696,301.7399,44.76551,56.46268
360970.6,200.0079,301.4913,45.00114,56.44094
360986.4,201.4084,301.2107,45.20103,56.41635
361008.4,202.4739,301.4302,45.35217,56.43559
361022,203.8964,301.8058,45.55272,56.46844
361038.8,205.1675,302.1347,45.73072,56.49718
361055.7,206.4603,302.2665,45.91059,56.50868
361073.9,207.5914,302.0572,46.06701,56.49041
361087.9,208.8807,302.0638,46.24424,56.49099
361105.9,210.2209,302.1983,46.42727,56.50273
361121.8,211.9478,302.3604,46.66129,56.51686
361142.5,213.2984,302.5276,46.84293,56.53144
361156.7,214.9501,302.3849,47.0634,56.51901
361172.3,216.2745,302.1173,47.23887,56.49566
361188.3,217.9544,301.9682,47.45979,56.48264
361205,219.6526,301.9621,47.68124,56.48211
361225.9,221.2882,302.0625,47.89277,56.49088
361239.2,223.2391,302.2252,48.14283,56.50508
361255.3,225.0098,302.2282,48.36771,56.50534
361274.1,226.6311,302.2202,48.57187,56.50463
361290.3,228.4059,302.1613,48.79351,56.4995
361307.7,229.897,302.2103,48.9782,56.50377
361323.4,231.3386,302.2741,49.15548,56.50935
361339.5,232.8929,302.291,49.34521,56.51081
361357.7,234.4573,302.2162,49.5347,56.50429
361374,235.7781,301.8086,49.69355,56.4687
361390.4,236.9699,301.5406,49.836,56.44525
361408.6,238.1417,301.3618,49.97525,56.4296
361425.1,239.1262,301.2429,50.09161,56.41918
361441.5,240.178,301.2157,50.21532,56.4168
361458.4,241.0952,301.2929,50.32267,56.42356
361472.5,241.9471,301.3392,50.42194,56.42762
361490.5,242.5788,301.2861,50.4953,56.42296
361508.8,243.2166,301.3079,50.56912,56.42487
361523.8,243.9813,301.3475,50.65733,56.42834
361541.8,244.7372,301.3836,50.74419,56.43151
361566.3,245.6668,301.5281,50.85059,56.44416
361583.3,246.1639,301.5964,50.90728,56.45013
361595.1,246.46,301.6183,50.94099,56.45205
361609.6,246.8094,301.6369,50.9807,56.45367
361624.3,247.1812,301.7405,51.02288,56.46274
361639.9,247.6383,301.8898,51.07463,56.47579
361656.4,248.338,301.9474,51.15363,56.48082
361675.9,249.1663,302.2028,51.2468,56.50312
361694.2,249.9087,302.3929,51.32999,56.5197
361712,250.6249,302.6793,51.40994,56.54465
361725.2,251.6947,303.019,51.52887,56.57421
361742.3,252.9271,303.4184,51.66511,56.60889
361763.7,254.6867,303.9166,51.85821,56.65208
361776,256.3362,304.2076,52.03775,56.67725
361794.7,258.8091,304.5551,52.30421,56.70727
361813.7,261.0279,304.6662,52.5406,56.71685
361827.3,263.5562,304.5071,52.8069,56.70313
361842.3,266.5114,304.1051,53.11409,56.66838
361858.1,270.3966,303.3547,53.51136,56.60337
361874.3,274.088,302.5547,53.88205,56.53381
361893.9,278.5059,301.1635,54.31721,56.41222
361910.7,283.0143,299.8575,54.75198,56.29736
361928.7,288.509,298.3631,55.26956,56.1651
361946.8,293.6628,297.1584,55.74306,56.0578
361962.4,298.8897,296.1052,56.21181,55.96351
361976.2,304.3277,295.1389,56.68763,55.87658
361992.1,310.7866,294.3096,57.23757,55.80168
362010.4,316.2272,293.6817,57.68842,55.74477
362026.2,322.4435,293.1595,58.19017,55.69732
362043.6,327.6015,292.7466,58.59603,55.65971
362058.8,332.5617,292.4798,58.97763,55.63537
362074.2,338.3206,292.2723,59.41032,55.61642
362093.1,343.2664,292.17,59.7733,55.60707
362109.6,348.8682,292.2644,60.17511,55.6157
362126.8,354.0934,292.4682,60.54125,55.63431
362143.3,358.892,292.7057,60.87036,55.65598
362158.6,364.334,293.214,61.23555,55.70227
362175.7,370.1217,293.7972,61.61486,55.75525
362193,375.4858,294.4633,61.9583,55.81558
362212.6,379.0956,295.0348,62.18515,55.8672
362227.6,383.309,295.66,62.4457,55.92351
362243.9,388.0856,296.4046,62.73568,55.99036
362263.2,392.0774,296.9102,62.97372,56.03562
362276.3,394.8724,297.2523,63.13811,56.06619
362292.8,397.8002,298.0259,63.30835,56.13512
362310.4,400.1688,298.8376,63.44462,56.20719
362326.8,402.4672,300.0173,63.57561,56.31146
362343,405.509,301.3509,63.74715,56.42864
362360.8,408.0086,302.9536,63.88657,56.56852
362376.2,409.6337,304.0945,63.97647,56.66747
362392,411.0056,304.8884,64.05192,56.73602
362408.5,412.1715,305.4479,64.11572,56.78418
362427.3,412.6624,305.5663,64.14249,56.79435
362443,413.2997,305.762,64.17718,56.81116
362460.2,413.5921,305.8553,64.19306,56.81917
362476,413.8919,305.9827,64.20934,56.83009
362494.8,414.0469,305.7529,64.21774,56.81038
362513,414.1484,305.5934,64.22324,56.79668
362527.1,414.321,305.5861,64.23258,56.79605
362544.7,414.4754,305.64,64.24094,56.80068
362560.8,414.6978,305.6706,64.25297,56.80331
362579,414.8479,305.6706,64.26108,56.80331
362593.9,414.9024,305.6742,64.26402,56.80362
362612.8,415.0044,305.7079,64.26953,56.80651
362628.3,415.0561,305.7743,64.27232,56.81221
362643.6,414.8651,305.7852,64.26201,56.81315
362660.6,414.7161,305.8247,64.25396,56.81654
362677.1,414.4449,305.8113,64.23929,56.81539
362694.2,413.9405,305.731,64.21197,56.8085
362710.5,413.5211,305.4991,64.18921,56.78858
362726.8,413.0036,305.2378,64.16107,56.76611
362742.4,412.3543,304.9433,64.12569,56.74075
362761.6,411.7477,304.776,64.09256,56.72633
362779.4,411.169,304.6753,64.06087,56.71764
362792.9,410.5336,304.4815,64.02601,56.70092
362810.6,409.9606,304.2197,63.99449,56.67829
362826.7,409.5467,303.7956,63.97167,56.64159
362843.4,409.3672,303.3833,63.96177,56.60585
362860.1,409.571,303.0005,63.97301,56.5726
362876.6,409.6606,302.4239,63.97795,56.5224
362894.4,409.5961,302.3019,63.9744,56.51176
362911.3,410.0931,302.0895,64.00178,56.49323
362928.2,409.9434,301.7088,63.99354,56.45996
362945.3,409.8835,301.1574,63.99024,56.41168
362961.2,409.9402,300.7215,63.99336,56.37342
362981,409.9833,300.307,63.99573,56.33698
362998.3,410.1228,300.0185,64.00342,56.31156
363011.2,410.2917,299.8036,64.01271,56.29261
363029.1,410.5075,299.6177,64.02457,56.27621
363044.9,410.6219,299.3303,64.03086,56.2508
363061,410.47,298.9133,64.02251,56.21391
363078.9,410.3983,298.4179,64.01857,56.16996
363097.2,410.0721,297.837,64.00063,56.11831
363114.8,409.88,297.3374,63.99004,56.07378
363129.1,409.4112,296.5968,63.9642,56.00758
363143.2,408.964,295.6881,63.93949,55.92603
363165,408.4279,294.7141,63.90982,55.83826
363177.9,408.0265,293.234,63.88756,55.70409
363195.9,407.6782,291.7132,63.86822,55.56527
363213.4,407.2395,290.2394,63.84381,55.42981
363225.7,406.2004,288.3455,63.78585,55.25434
363241.7,404.9326,286.153,63.71481,55.04927
363258.6,403.2649,283.2828,63.6208,54.7776
363275.4,401.7486,280.939,63.53479,54.553
363296,400.3911,278.5613,63.45734,54.32261
363316.2,399.4958,277.0105,63.40603,54.17093
363326.2,398.2372,275.0883,63.33359,53.98137
363344.1,396.9186,272.8073,63.25731,53.75418
363364.6,395.7417,270.6137,63.18887,53.53334
363378,394.8303,268.3069,63.13565,53.2986
363395.5,394.3733,266.305,63.1089,53.09277
363410.1,393.7032,264.4725,63.06957,52.90261
363426,393.3679,262.1063,63.04985,52.65459
363442.3,393.2292,259.4378,63.04169,52.37145
363460.5,392.7991,257.0989,63.01635,52.12027
363477.1,392.3351,254.8893,62.98896,51.88034
363498.3,392.0905,252.6566,62.97449,51.63528
363517.6,391.9715,250.6078,62.96745,51.40804
363531.8,391.7141,248.5097,62.95222,51.17298
363548.5,391.2825,246.2934,62.92662,50.92204
363563.3,390.8973,244.1121,62.90374,50.67239
363580.7,390.2681,241.7962,62.8663,50.40438
363599.3,389.2428,239.6528,62.80508,50.15364
363615.9,387.9215,238.1294,62.72581,49.97379
363629.7,386.6576,236.7293,62.64957,49.80731
363646.4,385.1428,235.4839,62.55769,49.65826
363663.6,383.59,234.8116,62.46291,49.57741
363680.7,382.2671,234.0886,62.38169,49.49018
363696.4,381.1526,233.2831,62.31292,49.39261
363712.1,379.7323,232.0365,62.22482,49.24085
363731.1,378.7103,231.0395,62.1611,49.1188
363747,377.5516,229.9707,62.08854,48.9873
363764.2,376.2848,228.6564,62.0088,48.82463
363782.1,374.6664,227.6171,61.90633,48.69524
363796.6,372.7686,226.8373,61.78529,48.59772
363811.9,370.3111,226.182,61.62712,48.51549
363829.5,367.0602,225.8123,61.41537,48.46897
363846.5,363.8085,225.2514,61.20065,48.39824
363862.1,359.7818,224.7587,60.93064,48.33594
363883,355.4565,224.2509,60.63542,48.27156
363896.7,350.7034,223.9279,60.30465,48.23053
363912.5,345.351,223.7495,59.92397,48.20784
363930.5,340.5366,223.2531,59.57393,48.14461
363946.4,335.3767,222.2976,59.19051,48.02245
363961.8,329.707,221.1292,58.75903,47.87228
363978.3,324.7202,219.9934,58.37046,47.72546
363996.8,319.6549,218.41,57.96682,47.51939
364013.8,315.5664,216.7391,57.63425,47.30015
364032.4,312.8907,214.9274,57.41325,47.06038
364048.9,311.6685,212.5996,57.31141,46.7491
364065.9,310.2054,210.5586,57.18874,46.47318
364081.8,308.778,208.8914,57.06828,46.2457
364097,307.4736,207.6339,56.95751,46.07286
364114.6,305.5331,206.3684,56.7915,45.89784
364130.2,303.1306,204.8425,56.58391,45.68531
364151.5,301.2281,203.5608,56.41788,45.50554
364163.8,299.2684,202.2861,56.24533,45.3256
364180.3,296.7027,200.9542,56.01706,45.13635
364197.3,294.1564,199.8124,55.78781,44.97312
364213.1,291.2297,198.5242,55.52093,44.78783
364230.3,288.6663,197.3437,55.28418,44.61697
364247.1,286.4569,196.2743,55.07782,44.46133
364265.5,284.0651,195.4065,54.852,44.33442
364279.3,281.3698,194.362,54.59446,44.18092
364297.9,278.414,193.5224,54.30824,44.05696
364316.3,275.7375,193.1289,54.04559,43.99869
364332.9,273.7761,192.9653,53.85098,43.97443
364348.8,271.9344,192.8027,53.66657,43.95029
364366.4,270.4266,192.3289,53.5144,43.87985
364382.8,268.9477,191.6067,53.36407,43.77217
364399.2,267.6034,191.1529,53.22649,43.7043
364416.3,266.3878,190.899,53.10133,43.66627
364432.3,265.4442,190.8826,53.00366,43.6638
364448.8,264.2701,190.9819,52.88151,43.67868
364466.6,263.1282,190.7966,52.76205,43.65092
364481.3,262.1853,190.5573,52.66291,43.615
364499.5,261.3716,190.2399,52.577,43.5673
364515.5,260.4522,189.9038,52.47952,43.51671
364532.1,259.4925,189.5801,52.37729,43.46791
364552.1,258.4201,189.344,52.2625,43.43225
364568.3,257.6205,189.209,52.17653,43.41185
364582.5,257.14,189.0775,52.1247,43.39198
364599.5,256.6274,188.9275,52.06929,43.36927
364618.2,256.1149,188.8795,52.01374,43.36201
364631.8,255.7429,188.9706,51.97333,43.37579
364649.5,255.3185,189.1508,51.92715,43.40305
364666,255.0324,189.388,51.89596,43.4389
364681.8,254.7747,189.5493,51.86783,43.46325
364698.7,254.6201,189.5986,51.85094,43.4707
364714,254.5715,189.4413,51.84563,43.44695
364734.2,254.6003,189.3011,51.84877,43.42577
364750.1,254.8445,189.2659,51.87545,43.42046
364767.5,255.057,189.3718,51.89864,43.43646
364783.7,254.988,189.2608,51.89111,43.41969
364799.4,254.883,189.3239,51.87966,43.42922
