Time Stamp(ms),Intersection,,Angle,
,x,y,x,y
425654.4,334.5803,256.8966,59.13054,52.09842
425670.3,334.1494,256.5609,59.09802,52.06208
425687.8,333.6256,256.2098,59.05839,52.02404
425702.8,333.1217,255.9981,59.02018,52.00106
425718.9,332.6851,255.9211,58.98702,51.9927
425734,332.1451,255.817,58.9459,51.98139
425751.7,331.7481,255.7006,58.91561,51.96873
425768.8,331.287,255.5649,58.88036,51.95398
425783.9,330.9789,255.5026,58.85677,51.9472
425801,330.7109,255.5783,58.83622,51.95543
425817.9,330.4879,255.7503,58.81911,51.97414
425837.6,330.3969,255.8424,58.81211,51.98415
425851.2,330.3714,255.8622,58.81016,51.9863
425875.2,330.3568,255.8474,58.80903,51.98469
425887.9,330.2486,255.9296,58.80072,51.99362
425903.8,330.2467,256.1243,58.80057,52.01476
425920.2,330.3387,256.4348,58.80764,52.04842
425936.6,330.3906,256.5234,58.81163,52.05803
425955.4,330.6533,256.6032,58.8318,52.06667
425970,330.8937,256.735,58.85024,52.08093
425987.7,331.2328,257.0284,58.87622,52.11265
426004.1,331.5025,257.3649,58.89685,52.14898
426020.3,331.8164,257.6547,58.92082,52.18022
426037.3,332.1421,257.8077,58.94567,52.19669
426052.8,332.4425,258.0233,58.96856,52.21989
426071.8,332.6205,258.2213,58.9821,52.24117
426087.8,332.887,258.6931,59.00236,52.29179
426106.7,333.0374,259.1697,59.01379,52.3428
426120.9,333.2124,259.9336,59.02707,52.42433
426137.7,333.3343,260.5261,59.03632,52.48736
426156.3,333.4494,261.7128,59.04504,52.61306
426173.1,333.5613,263.2927,59.05352,52.7793
426191,333.7406,264.9049,59.0671,52.94764
426205.1,333.9796,266.7546,59.08518,53.13917
426220.6,334.1641,269.1918,59.09913,53.38895
426236.8,334.4233,271.5708,59.1187,53.62998
426255,334.5583,273.7441,59.12889,53.84779
426270.8,334.5233,276.1747,59.12625,54.08872
426288.1,334.385,278.3066,59.11581,54.29777
426304.1,334.1803,280.4318,59.10035,54.50407
426319.9,334.0034,282.5371,59.08698,54.70641
426336,333.7588,284.6159,59.06848,54.90424
426353.3,333.4297,286.6274,59.04354,55.09382
426375.3,333.1519,288.2922,59.02248,55.24938
426388.8,332.6079,290.6936,58.98115,55.47165
426408.5,332.2066,292.7618,58.95058,55.66109
426423.6,331.8033,295.1223,58.91982,55.8751
426438.7,331.4154,298.035,58.89018,56.13594
426454.6,330.9634,300.7391,58.85558,56.37497
426471.9,330.533,303.1656,58.82257,56.58695
426488.6,330.051,305.5431,58.78552,56.79235
426506.6,329.7329,308.0145,58.76103,57.00353
426526.3,329.377,310.1099,58.73359,57.18071
426537.7,328.7549,312.6092,58.68551,57.38984
426558.6,328.0125,314.8172,58.62797,57.57264
426576,327.4264,316.6478,58.5824,57.72281
426590.6,326.9001,318.2779,58.54138,57.8555
426606.4,326.4439,319.9141,58.50575,57.9877
426623.3,326.1255,321.4264,58.48085,58.10904
426641.3,325.7923,322.7332,58.45473,58.21322
426658.2,325.6688,323.4915,58.44505,58.27339
426674.8,325.4224,324.1697,58.4257,58.32704
426690.6,325.1714,324.8574,58.40598,58.38128
426705.1,324.8788,325.7888,58.38296,58.45446
426722.3,324.654,326.7075,58.36525,58.52635
426739.1,324.5302,327.6165,58.3555,58.59719
426755.3,324.2317,328.5466,58.33194,58.66938
426772.9,323.7991,329.3521,58.29774,58.73167
426790.4,323.1889,329.9691,58.2494,58.77922
426806.5,322.4257,330.8164,58.18876,58.84431
426822.8,321.5927,331.869,58.12233,58.92484
426839.6,320.4709,332.8675,58.03247,59.00089
426857.4,319.1236,333.5135,57.92395,59.0499
426874.9,317.6977,334.0234,57.80838,59.0885
426898.7,316.1623,334.4066,57.68311,59.11744
426911.4,314.8898,334.8418,57.57862,59.15026
426925.4,312.54,335.5689,57.38409,59.20494
426943.3,310.526,336.3687,57.21569,59.26489
426959.7,308.5201,336.9699,57.04644,59.30981
426974.8,306.4799,337.3616,56.87268,59.33903
426991.9,304.2239,337.6273,56.67866,59.3588
427012.5,301.9706,337.7223,56.48285,59.36587
427027.6,299.5632,337.8535,56.27139,59.37563
427041.4,296.3664,337.8127,55.98693,59.3726
427059.5,293.4811,337.9814,55.72655,59.38514
427081.8,290.1202,338.6201,55.4188,59.43253
427099.3,287.4332,338.9373,55.16927,59.45601
427115.1,284.545,339.1213,54.89751,59.46962
427127.1,282.1185,339.3804,54.66634,59.48876
427142,278.4178,339.7266,54.30862,59.51431
427163.4,276.5085,339.8654,54.12159,59.52454
427174.7,273.7205,340.2388,53.84544,59.55203
427192.6,270.6523,340.7631,53.53725,59.59056
427211.3,268.0646,341.1101,53.27379,59.61601
427227,265.2239,341.3847,52.98079,59.63613
427245.3,262.6572,341.6943,52.71259,59.65877
427260.9,260.0853,342.0214,52.44049,59.68266
427277.2,257.4836,342.3476,52.16179,59.70646
427293.9,254.8286,342.7688,51.87371,59.73713
427312.4,251.8139,343.36,51.54209,59.78009
427328.3,248.4828,343.8928,51.16994,59.81872
427346.8,244.9087,344.7724,50.76387,59.88229
427361.8,241.6742,345.8004,50.39019,59.95628
427376.6,238.4334,346.7078,50.00978,60.0213
427393.3,234.3365,347.5982,49.52012,60.08487
427416.5,231.4917,348.2791,49.17424,60.13331
427432.4,228.6353,349.0325,48.822,60.18675
427445.3,225.5932,349.9143,48.44135,60.24907
427460,222.9335,350.5923,48.10381,60.29684
427475.2,219.9878,351.3325,47.72473,60.34882
427492.9,217.1222,351.9443,47.35057,60.39165
427513.9,214.9574,352.5731,47.06437,60.43557
427526.6,212.8263,353.0816,46.77957,60.47099
427542.2,210.8864,353.4133,46.5177,60.49406
427559.3,209.288,353.7704,46.3,60.51886
427576.1,207.8871,354.0215,46.10776,60.53627
427593,206.0463,354.0453,45.8531,60.53792
427610.5,204.4101,354.1279,45.62479,60.54364
427627.3,202.8952,354.0642,45.41171,60.53923
427645.8,201.5176,353.8973,45.21656,60.52766
427661.3,200.0944,353.7045,45.01352,60.51429
427679.4,198.9867,353.5698,44.85449,60.50493
427695.7,197.9412,353.4473,44.70358,60.49643
427713.2,196.9494,353.2395,44.55968,60.48198
427728.8,195.933,352.927,44.41148,60.46023
427744.8,195.1162,352.5406,44.29184,60.4333
427762,194.4522,352.3639,44.19421,60.42097
427778,193.8455,352.1089,44.10474,60.40316
427794.8,193.349,351.7275,44.0313,60.37648
427811,192.8018,351.4245,43.95016,60.35526
427828.3,192.4101,351.0897,43.89193,60.33178
427845.5,192.1184,350.7758,43.84851,60.30973
427863.3,192.1221,350.3387,43.84906,60.27898
427878.6,192.137,349.6617,43.85128,60.23124
427893.3,192.1854,348.6956,43.85848,60.16288
427911.1,192.5102,347.5757,43.90683,60.08327
427927.8,193.0507,346.6058,43.98709,60.014
427948.1,193.5547,345.4103,44.06174,59.92823
427961.2,194.0024,343.6552,44.1279,59.80151
427978.1,194.3619,341.8741,44.18092,59.67191
427994,194.9765,339.793,44.27132,59.51921
428011.8,196.0227,337.4317,44.42459,59.34424
428028.5,196.7778,334.934,44.53471,59.1572
428045,197.4508,331.7938,44.63251,58.9191
428061.4,197.8238,329.1653,44.68658,58.71724
428081.6,198.195,326.6114,44.74028,58.51884
428093.8,198.5894,324.512,44.79723,58.35405
428114.9,198.8034,322.0052,44.82808,58.15525
428133,199.0839,319.902,44.86847,57.98673
428148.6,199.2993,317.7339,44.89945,57.81133
428164,199.5597,315.2349,44.93687,57.60701
428182.3,199.6518,313.304,44.95008,57.44756
428193.5,199.7577,311.1758,44.96527,57.27019
428211.6,200.0154,309.1215,45.00221,57.09734
428228.5,200.002,307.2905,45.00029,56.94191
428245.6,200.2757,305.358,45.03947,56.77644
428261.3,200.49,303.1305,45.07011,56.5839
428279.4,200.5767,301.4765,45.08249,56.43964
428294.2,200.7765,299.7629,45.11101,56.28902
428311.4,201.1371,298.3691,45.16242,56.16563
428328.7,201.4236,297.1256,45.20319,56.05487
428345,201.9015,296.0802,45.27108,55.96126
428362.6,202.349,295.1517,45.3345,55.87774
428382.8,202.7078,294.5091,45.38525,55.81973
428395.9,203.2623,294.2974,45.4635,55.80057
428410.8,203.7018,293.7947,45.52536,55.75503
428434.7,204.0589,293.4724,45.57554,55.72576
428445.2,204.5261,293.0293,45.64104,55.68546
428461.4,205.359,292.5193,45.75743,55.63898
428484.3,205.9462,291.8008,45.8392,55.57329
428500.7,206.293,290.7287,45.88737,55.47488
428515.9,206.3115,289.5466,45.88995,55.3658
428531.1,206.0999,287.8362,45.86055,55.2069
428548.9,206.3201,286.4112,45.89113,55.07352
428565.5,206.467,284.6658,45.91151,54.90895
428582.6,206.4686,283.0429,45.91173,54.75471
428598.9,206.4279,281.19,45.90609,54.57717
428613.7,206.2175,279.0277,45.8769,54.36801
428631.8,206.1288,276.9607,45.86458,54.16604
428649.3,206.2388,274.9625,45.87984,53.96891
428673.5,206.3015,272.7213,45.88855,53.74556
428687.9,206.5052,271.2232,45.91681,53.59493
428699.3,206.7684,269.5515,45.95328,53.42557
428713.5,207.1911,267.7185,46.01176,53.23831
428731,207.7228,266.131,46.08513,53.07478
428749,208.2839,264.5379,46.16234,52.90943
428768,208.6335,263.0289,46.21035,52.75164
428781.6,209.2312,261.4128,46.29222,52.58136
428802.2,209.9211,259.7841,46.38643,52.4084
428818.5,210.3228,258.3721,46.44113,52.25735
428832,210.6999,257.1169,46.49238,52.12222
428850.6,211.3356,255.6246,46.57856,51.96047
428867.1,211.9961,254.1555,46.6678,51.80009
428882.8,212.3864,252.5758,46.72042,51.62635
428902.9,212.4785,250.791,46.73282,51.42846
428918,212.5134,249.4652,46.7375,51.28032
428933.7,212.606,248.302,46.74996,51.14957
428951.2,212.5808,247.3144,46.74658,51.03797
428969.5,212.4956,246.2541,46.73512,50.91756
428984.9,212.441,245.0107,46.72776,50.77555
429000.1,212.3913,243.6297,46.72107,50.61681
429016.2,212.4689,242.3177,46.73152,50.465
429032,212.6634,240.9231,46.75768,50.30256
429052.1,212.9722,239.6375,46.79918,50.15183
429065.5,213.3024,238.4021,46.84347,50.00608
429083.3,213.5223,237.0034,46.87292,49.83999
429099.6,213.7418,235.7049,46.90229,49.68477
429116.5,214.1967,234.0899,46.96307,49.49033
429133.5,214.8647,232.4868,47.05204,49.29578
429148.4,215.3574,230.9497,47.11749,49.10778
429163.8,215.6185,229.192,47.1521,48.89104
429182.6,215.8427,228.1437,47.18179,48.76089
429198.6,216.1937,227.293,47.2282,48.65476
429215,217.0646,226.3844,47.343,48.54091
429232.6,217.9267,225.546,47.45615,48.43541
429249.5,218.7937,224.6773,47.56947,48.32562
429266.7,219.3338,224.0187,47.6398,48.24207
429281.5,219.9852,223.4578,47.7244,48.17071
429299.7,220.6823,223.1226,47.81461,48.12796
429315.5,221.576,223.0511,47.9298,48.11884
429333.1,222.0964,223.0937,47.99665,48.12428
429349.9,222.5964,223.1373,48.06072,48.12983
429365.9,223.1637,223.2926,48.13321,48.14965
429381.5,223.97,223.7108,48.23589,48.20292
429398.4,225.109,223.9803,48.38024,48.2372
429414.7,226.3396,224.1573,48.53528,48.25969
429433.8,227.235,224.1173,48.6475,48.2546
429450.4,227.6703,224.0854,48.70188,48.25055
429468.9,227.8717,224.0663,48.72701,48.24812
429483.5,227.9961,224.5701,48.7425,48.31205
429499.9,228.5009,225.2097,48.80531,48.39297
429516.3,229.0266,225.9959,48.87056,48.49207
429533.4,229.0963,226.8348,48.87919,48.59741
429550.6,229.2053,227.8339,48.89269,48.72229
429568,229.733,229.6481,48.95796,48.94747
429584.4,230.4061,231.4003,49.04095,49.16304
429603.8,231.5061,233.9219,49.17599,49.47002
429619.1,232.8911,236.1478,49.34498,49.73783
429633.5,234.5789,238.6387,49.54937,50.03407
429651.7,236.5868,241.4351,49.7903,50.36234
429668.3,238.9163,244.6434,50.06686,50.73343
429689.4,241.0087,247.422,50.31256,51.05016
429709.3,243.0185,250.2382,50.54621,51.36681
429719.6,244.3039,252.4025,50.69445,51.60722
429734.9,245.6481,254.9675,50.84845,51.88887
429753.4,246.617,257.2206,50.95884,52.1334
429770.1,247.6423,259.6782,51.07508,52.39711
429787,248.8186,261.8146,51.20774,52.62381
429800.6,249.9714,263.9105,51.33699,52.84396
429816.8,250.8993,265.6036,51.44051,53.02018
429833.1,251.4398,267.3114,51.5006,53.19649
429851.4,252.2377,268.7809,51.58899,53.34704
429866.8,253.6536,270.527,51.74504,53.52457
429884.7,255.5822,272.1573,51.95585,53.68899
429902.2,257.9575,273.771,52.21281,53.85047
429918.6,259.9224,275.1905,52.42314,53.9915
429934.2,261.9573,277.0887,52.63887,54.1786
429956.4,263.4696,278.9645,52.79784,54.36186
429970.9,265.0501,280.6645,52.96274,54.52653
429987.6,266.6298,282.4753,53.1263,54.70049
430003,268.3955,284.4309,53.30766,54.88671
430020.1,270.0169,286.4901,53.47286,55.08094
430036.6,271.5984,288.9367,53.63276,55.30928
430052.4,273.3293,291.389,53.80639,55.53555
430070.1,274.5115,293.3611,53.92416,55.71564
430085.6,274.915,295.4773,53.9642,55.90707
430102.1,275.0295,297.543,53.97555,56.09212
430119.5,275.3229,299.8972,54.00461,56.30087
430134.5,276.3492,302.8157,54.10591,56.55652
430156.4,277.4136,304.874,54.21046,56.73478
430171.6,278.2445,306.7093,54.29171,56.8923
430187,279.2262,308.6382,54.38729,57.05644
430204.8,279.7104,310.4237,54.43427,57.2071
430220.4,280.1615,312.3133,54.47794,57.3652
430238.6,280.9798,314.0099,54.55693,57.50602
430254.5,281.7145,315.3811,54.62759,57.61903
430270.3,281.792,316.7854,54.63503,57.73405
430286.4,282.089,318.4468,54.66351,57.86919
430302.9,282.7047,320.1028,54.72242,58.00289
430319,283.1475,321.7184,54.7647,58.13237
430338.9,283.4902,323.321,54.79734,58.25988
430355.5,283.5654,325.1272,54.8045,58.4025
430373.3,283.8904,326.6542,54.83541,58.52219
430388.8,284.7726,328.0597,54.91906,58.63163
430408.4,285.9245,329.2531,55.02777,58.72402
430427.6,287.3982,330.4487,55.16599,58.8161
430438.2,288.4819,331.5314,55.26703,58.89905
430454.8,289.514,332.6585,55.36278,58.98499
430472.5,291.0157,333.7329,55.50128,59.06652
430489.3,292.7693,334.9511,55.66178,59.15849
430505.9,294.4636,336.0904,55.81561,59.24405
430523,296.5376,337.1664,56.00227,59.32448
430541,299.7833,338.7726,56.29082,59.44382
430563.1,301.1863,339.4789,56.41422,59.49604
430575.9,303.1619,340.3874,56.58662,59.56296
430588.8,305.957,341.5215,56.8279,59.64614
430611.2,308.277,342.3135,57.02582,59.70397
430628.4,310.0348,342.5486,57.17439,59.7211
430640.8,311.9129,342.6565,57.33182,59.72896
430654.6,315.349,343.0328,57.61639,59.75634
430671.5,318.3843,343.6029,57.86413,59.79772
430688.9,320.6756,343.7277,58.0489,59.80676
430705.9,322.7815,343.8462,58.21705,59.81535
430723.4,324.7697,343.8734,58.37437,59.81731
430743.2,327.2254,343.9783,58.56675,59.82491
430758.3,329.6082,344.0696,58.75142,59.83152
430773.7,331.9094,344.3583,58.92792,59.85239
430789.7,334.4851,344.7692,59.12337,59.88206
430807.3,336.5515,345.1391,59.27856,59.90871
430822.8,338.8015,345.464,59.44596,59.9321
430840.2,341.0396,345.5408,59.61084,59.93762
430854.5,343.752,345.7273,59.80852,59.95102
430871.1,346.4917,345.8297,60.00584,59.95837
430887.5,349.1258,345.7505,60.19335,59.95269
430905.3,351.2329,345.7321,60.34183,59.95137
430921.2,353.1913,345.602,60.47863,59.94202
430938.4,355.2242,345.5782,60.61941,59.94031
430954.8,357.8798,345.6642,60.8015,59.94649
430971.7,360.2266,345.5569,60.9607,59.93877
430987.9,362.578,345.4466,61.11863,59.93085
431003.7,365.2862,345.4514,61.2986,59.93119
431021.9,367.6519,345.5416,61.45413,59.93768
431038.5,369.8411,345.5915,61.59668,59.94126
431055,372.2017,345.5607,61.74895,59.93905
431071.3,374.3453,345.5357,61.88592,59.93725
431087.9,377.0426,345.4359,62.05655,59.93008
431109.3,378.4391,345.3866,62.14415,59.92653
431120.9,380.2991,345.3498,62.26003,59.92388
431137.8,382.0122,345.2267,62.36599,59.91502
431154.9,383.4035,345.1786,62.45149,59.91156
431171.1,384.6131,345.1463,62.52543,59.90923
431191.7,385.5209,345.0702,62.58068,59.90375
431208.1,386.3799,344.9155,62.63277,59.8926
431224.4,386.9699,344.5224,62.66845,59.86424
431241.7,387.5096,344.1834,62.70101,59.83975
431258.3,387.9232,343.8348,62.72591,59.81452
431273.2,388.4467,343.5717,62.75737,59.79546
431291.4,388.9821,343.427,62.78947,59.78496
431304.3,389.7829,343.3826,62.83736,59.78174
431321.3,390.5508,343.2465,62.88314,59.77185
431338.2,391.3266,343.142,62.92924,59.76427
431354.8,392.322,342.9479,62.98818,59.75016
431371.7,393.2371,342.7995,63.04215,59.73937
431387.9,394.4064,342.7664,63.11084,59.73696
431405.5,395.5956,342.7536,63.18036,59.73603
431422,396.7113,342.7922,63.24527,59.73884
431438.2,397.8314,342.8799,63.31015,59.74522
431455.8,398.7294,342.7357,63.36197,59.73473
431472.4,399.7283,342.5311,63.41938,59.71983
431489,400.9437,342.2847,63.48892,59.70187
431506,402.2235,342.0183,63.56178,59.68244
431528,403.5207,341.8336,63.63526,59.66895
431544.6,404.6634,341.6649,63.69967,59.65662
431555.6,405.3157,341.2589,63.73631,59.62691
431573.6,406.2562,340.403,63.78897,59.56411
431592.3,408.1895,339.7686,63.8966,59.5174
431609.8,409.8359,339.5213,63.98762,59.49916
431623.3,411.4573,339.4259,64.07667,59.49212
431642.6,413.0243,339.5463,64.1622,59.50101
431656.1,415.3591,339.6462,64.28867,59.50838
431673.1,417.7562,339.9694,64.41732,59.5322
431689.2,420.1456,340.4325,64.54436,59.56628
431706.4,422.3591,340.9373,64.661,59.60334
431722.7,424.3857,341.3264,64.76693,59.63185
431739.7,425.9526,341.6996,64.84827,59.65916
431756.5,427.7695,342.1291,64.94196,59.69052
431772.8,429.8485,342.746,65.04837,59.73548
431791.5,431.187,343.0867,65.11644,59.76025
431808.1,431.9638,343.3062,65.15578,59.77619
431823.8,432.4082,343.2989,65.17824,59.77566
431840.3,432.8702,343.3292,65.20154,59.77786
431858.1,433.2909,343.3619,65.22272,59.78024
431874.1,434.0008,343.4449,65.25839,59.78625
431895.5,434.4582,343.4159,65.28133,59.78416
431908.2,434.759,343.3494,65.29639,59.77932
431923.8,434.8149,343.233,65.29919,59.77087
431940.3,434.9965,343.155,65.30827,59.76521
431957.5,435.1549,343.0739,65.31618,59.75932
431973.3,435.3691,342.983,65.32688,59.75272
431990.6,435.5768,342.802,65.33725,59.73956
432007.8,435.7106,342.5428,65.34392,59.72068
432031.2,435.8199,342.1234,65.34937,59.69011
432041.5,435.6136,341.615,65.33908,59.65297
432057.7,435.2856,341.249,65.32272,59.62619
432074.9,434.9396,341.0176,65.30543,59.60923
432091.2,434.5651,340.8365,65.28668,59.59595
432110.7,434.1967,340.6146,65.26822,59.57965
432129,433.9496,340.3549,65.25583,59.56057
432146.4,433.6901,340.1084,65.2428,59.54243
432169,433.4352,339.9226,65.22998,59.52876
432186.3,433.326,339.9684,65.22449,59.53213
432197.9,433.196,339.8212,65.21795,59.52128
432215.6,433.2955,339.7779,65.22295,59.51809
432230.8,433.4033,339.7131,65.22838,59.51332
432247,433.4539,339.6608,65.23092,59.50946
432262.9,433.4367,339.5692,65.23006,59.5027
432285.7,433.5362,339.574,65.23506,59.50305
432297.9,433.4693,339.4203,65.2317,59.49171
432312.5,433.5512,339.3863,65.23582,59.4892
432328.3,433.5001,339.165,65.23325,59.47285
432345.5,433.4322,338.8218,65.22984,59.44746
432364.6,433.6758,338.7657,65.24208,59.44331
432378.2,433.9489,338.6615,65.25579,59.43559
432412.9,434.2909,338.7008,65.27294,59.4385
432429,434.3841,338.7483,65.27762,59.44202
432443,434.4562,338.741,65.28123,59.44148
432461.9,434.7102,338.6195,65.29395,59.43248
432474.9,434.9272,338.589,65.3048,59.43022
432487.8,435.0315,338.5237,65.31001,59.42538
432499.7,435.1216,338.5369,65.31452,59.42636
432511.7,435.256,338.8071,65.32124,59.44637
432531.6,435.109,338.9177,65.31389,59.45456
432546.6,435.0513,339.1656,65.311,59.4729
432562.4,435.1468,339.5823,65.31578,59.50366
432578.5,435.0581,340.0754,65.31135,59.54001
432595.1,434.8894,340.5954,65.30291,59.57824
432612.6,434.5913,341.2416,65.28799,59.62565
432629.6,434.1372,342.1114,65.26524,59.68924
432646.1,433.3583,343.1227,65.22612,59.76286
432662.8,432.6019,343.8165,65.18801,59.8132
432680.1,431.7228,344.3107,65.14359,59.84895
432696,430.4165,344.5785,65.0773,59.86829
432711.9,428.9303,344.9766,65.00148,59.89701
432729.7,426.9292,345.2991,64.8987,59.92023
432745.4,424.9565,345.4116,64.79662,59.92833
432764,422.6954,345.4669,64.67864,59.9323
432780.1,420.2188,345.2515,64.54824,59.91681
432797.7,418.4106,345.1592,64.45222,59.91017
432813.2,416.6923,345.1233,64.36037,59.90758
432832.2,415.4642,345.2887,64.29433,59.91949
432848.4,414.6216,345.4522,64.24885,59.93125
432865.1,414.0941,345.8624,64.22029,59.96072
432881.2,413.7065,346.1432,64.19928,59.98087
432901.9,413.2613,346.3223,64.17509,59.99371
432916.1,413.4836,346.7179,64.18717,60.02203
432931.5,413.5463,347.2025,64.19057,60.05665
432947.7,413.6411,347.7729,64.19572,60.09731
432964.8,413.7774,348.3733,64.20313,60.14001
432980,413.7905,348.8004,64.20383,60.17031
432995.6,413.7926,349.0218,64.20395,60.18599
433012.9,413.8712,349.1099,64.20821,60.19223
433030.2,414.1936,349.3004,64.22569,60.20571
433045.9,414.4569,349.5743,64.23994,60.22507
433062.6,414.8773,349.8484,64.26267,60.24443
433078.6,415.58,350.2217,64.30058,60.27074
433095.6,416.3204,350.4859,64.34041,60.28935
433114.2,417.0433,350.6673,64.37918,60.30211
433130,417.7864,350.7859,64.41893,60.31044
433149.4,418.3205,350.8434,64.44743,60.31448
