Time Stamp(ms),Intersection,,Angle,
,x,y,x,y
1399905,314.4792,253.1861,57.54478,51.69364
1399928,314.3244,252.5253,57.53201,51.62078
1399946,313.8877,252.2185,57.49591,51.58687
1399957,313.5935,252.4491,57.47156,51.61236
1399972,313.2839,252.8223,57.4459,51.65355
1399995,313.2003,252.9673,57.43896,51.66954
1400006,313.4105,253.138,57.4564,51.68834
1400024,313.8414,253.3735,57.49208,51.71425
1400046,314.1285,253.8039,57.51582,51.76154
1400062,314.3078,254.0414,57.53063,51.78758
1400072,314.2829,254.2051,57.52858,51.80552
1400089,313.9643,254.1171,57.50225,51.79589
1400106,313.5019,253.9154,57.46397,51.77378
1400122,312.7184,253.4834,57.39893,51.72633
1400139,312.1029,253.3579,57.34767,51.71254
1400156,311.491,253.5017,57.29657,51.72835
1400173,310.892,253.5363,57.24641,51.73215
1400190,310.2082,253.7343,57.18898,51.75389
1400207,309.4299,254.4095,57.12339,51.82791
1400223,308.8573,255.1774,57.07499,51.91177
1400240,308.4361,256.0819,57.03931,52.01015
1400256,308.0214,256.9907,57.00411,52.10858
1400275,307.584,257.6786,56.96692,52.1828
1400292,307.0491,258.4134,56.92133,52.26178
1400310,306.5058,258.936,56.8749,52.31781
1400323,305.7704,259.3892,56.81188,52.36626
1400343,304.8678,259.3058,56.73424,52.35736
1400362,303.866,259.0763,56.64769,52.33281
1400372,302.4608,258.5406,56.52562,52.27544
1400391,300.4659,257.8005,56.35096,52.19592
1400409,298.6008,257.502,56.1862,52.16376
1400423,296.4427,257.4846,55.99377,52.16189
1400440,293.6028,257.892,55.73761,52.20576
1400457,290.7571,258.4482,55.4775,52.26552
1400473,287.3604,259.532,55.16246,52.38152
1400490,284.4221,260.4663,54.88587,52.48101
1400513,282.0382,261.2331,54.65864,52.56234
1400529,279.7343,262.15,54.43658,52.65919
1400542,277.2483,262.4432,54.19426,52.69007
1400559,275.0285,262.7173,53.97545,52.7189
1400574,272.4584,263.1237,53.7192,52.76157
1400593,270.4704,263.6426,53.51883,52.81594
1400609,268.5061,264.0435,53.31897,52.85785
1400627,266.9566,263.9234,53.15998,52.84531
1400640,265.2914,263.1449,52.9878,52.7638
1400660,263.5117,262.5499,52.80224,52.7013
1400680,261.9121,262.167,52.63411,52.66098
1400697,260.3199,261.7378,52.46545,52.6157
1400711,258.5475,261.4016,52.27617,52.58018
1400729,256.7226,260.9891,52.07959,52.5365
1400748,254.9826,260.1491,51.89053,52.44728
1400763,253.1461,259.4286,51.68923,52.37047
1400777,251.2196,258.9193,51.47614,52.31602
1400792,248.8775,258.7756,51.21436,52.30062
1400811,246.6839,258.4839,50.96645,52.26936
1400830,244.4871,258.3389,50.7155,52.2538
1400844,242.3189,258.2162,50.46514,52.24062
1400863,240.3304,258.2178,50.23318,52.24079
1400879,238.2841,258.35,49.99211,52.25499
1400894,236.1558,258.1577,49.73878,52.23433
1400912,234.6404,257.6205,49.55678,52.17653
1400927,232.3979,256.8116,49.28494,52.08922
1400944,230.6036,256.2505,49.06525,52.02845
1400960,228.9999,255.8214,48.86724,51.98186
1400975,227.3679,255.3954,48.66412,51.93553
1400992,225.7083,254.985,48.45587,51.89079
1401010,224.3234,254.728,48.28076,51.86272
1401028,223.3118,254.4519,48.1521,51.83254
1401043,222.2567,254.1285,48.01721,51.79714
1401059,221.4185,253.996,47.90955,51.78261
1401075,220.4901,253.7257,47.78976,51.75296
1401093,219.6333,253.5433,47.67873,51.73292
1401111,218.851,253.492,47.57694,51.72728
1401126,217.845,253.3246,47.44546,51.70888
1401142,216.5472,252.9405,47.27486,51.66658
1401159,215.2993,252.5129,47.10978,51.61942
1401174,213.8472,251.8457,46.91639,51.5456
1401191,212.2774,251.2907,46.70573,51.48404
1401208,210.8591,250.912,46.51398,51.44193
1401224,209.351,250.9029,46.30861,51.44091
1401240,207.8986,250.8005,46.10935,51.42951
1401258,206.5447,250.74,45.92229,51.42277
1401273,204.93,250.4725,45.69754,51.39295
1401292,203.4348,249.8581,45.4878,51.32432
1401310,201.6393,249.2606,45.23386,51.25738
1401324,199.8046,248.4328,44.97199,51.16432
1401341,198.323,247.8736,44.75878,51.10123
1401358,197.0366,247.0738,44.57237,51.0107
1401374,195.8535,246.0753,44.39985,50.89719
1401391,194.6238,245.0454,44.21947,50.77953
1401408,193.5128,244.3433,44.05554,50.69897
1401424,192.5123,243.5131,43.90714,50.60336
1401441,191.2356,242.6911,43.71669,50.50831
1401458,190.1797,242.2491,43.55824,50.45704
1401475,189.0723,241.6351,43.39118,50.38564
1401491,188.1693,241.1397,43.25426,50.32787
1401508,187.5525,240.715,43.16039,50.27823
1401525,187.1594,240.5306,43.10042,50.25664
1401542,186.8816,240.2925,43.05795,50.22875
1401558,186.4729,239.9529,42.99538,50.18889
1401574,185.909,239.7554,42.90884,50.16569
1401592,185.5345,239.7076,42.85123,50.16007
1401609,185.2708,239.6591,42.8106,50.15437
1401625,185.1809,239.7219,42.79674,50.16175
1401642,185.2802,239.5876,42.81205,50.14597
1401659,185.3131,239.5094,42.81712,50.13676
1401674,185.461,239.353,42.83991,50.11835
1401691,185.9281,239.275,42.91177,50.10916
1401709,186.0945,239.2071,42.93733,50.10115
1401725,186.4361,239.1047,42.98975,50.08908
1401742,186.7496,238.9158,43.03775,50.06679
1401758,187.1497,238.741,43.09893,50.04615
1401775,187.7027,238.7025,43.18328,50.0416
1401792,188.2423,238.7691,43.26536,50.04947
1401812,188.7908,238.7166,43.34856,50.04327
1401830,189.2822,238.7412,43.42292,50.04617
1401846,189.8078,238.8921,43.50224,50.064
1401861,190.2575,238.8843,43.56995,50.06308
1401875,190.7573,238.788,43.64502,50.05171
1401902,191.2131,238.8507,43.71331,50.05911
1401911,191.4186,238.9245,43.74406,50.06781
1401929,191.6339,238.9621,43.77623,50.07226
1401943,191.7872,239.0162,43.79911,50.07864
1401959,191.8006,239.0427,43.80112,50.08177
1401975,191.544,239.2808,43.76281,50.10984
1401992,191.2733,239.5711,43.72233,50.14402
1402010,190.9029,239.8164,43.66685,50.17286
1402026,190.4641,239.96,43.601,50.18974
1402043,190.051,239.998,43.53888,50.19419
1402066,189.5107,239.9979,43.45744,50.19419
1402078,189.0996,240.0534,43.39531,50.2007
1402095,188.7298,240.229,43.33932,50.2213
1402110,188.4184,240.3401,43.2921,50.23432
1402131,188.0988,240.3072,43.24356,50.23047
1402147,187.8042,240.2648,43.19874,50.2255
1402163,187.5537,240.2422,43.16058,50.22284
1402180,188.365,240.632,43.284,50.26852
1402196,188.4613,240.8337,43.2986,50.29211
1402210,188.465,241.1242,43.29916,50.32605
1402227,188.4751,241.4007,43.30071,50.35832
1402244,188.5297,241.8272,43.30898,50.408
1402260,188.5033,242.1378,43.30499,50.44411
1402277,188.5336,242.3765,43.30958,50.47183
1402293,188.6876,242.6158,43.33293,50.49958
1402312,188.8744,242.8278,43.36123,50.52414
1402329,189.0475,242.9139,43.38744,50.53411
1402353,189.3652,242.9967,43.43546,50.5437
1402367,189.4869,242.9203,43.45384,50.53485
1402380,189.6318,242.8143,43.4757,50.52258
1402396,189.9259,242.8072,43.52003,50.52176
1402414,190.2612,243.075,43.5705,50.55274
1402430,190.5778,243.1873,43.61807,50.56574
1402450,191.0099,243.3009,43.68288,50.57886
1402468,191.5217,243.428,43.75947,50.59353
1402484,191.981,243.4551,43.82803,50.59666
1402497,192.4492,243.5182,43.89776,50.60395
1402514,192.9301,243.7245,43.9692,50.62775
1402532,193.4018,244.0782,44.03912,50.66848
1402551,193.9055,244.277,44.11359,50.69135
1402568,194.3459,244.4597,44.17855,50.71235
1402586,194.8545,244.6802,44.2534,50.73766
1402597,195.2401,245.0321,44.31001,50.778
1402612,195.6276,245.485,44.3668,50.82983
1402629,196.0805,246.2381,44.43304,50.91574
1402646,196.4692,246.896,44.48976,50.99053
1402663,196.7807,247.6385,44.53514,51.07465
1402682,196.9164,248.5191,44.55488,51.17404
1402701,197.0375,249.429,44.5725,51.27627
1402712,197.2086,250.3376,44.59735,51.37791
1402728,197.3015,251.6391,44.61084,51.52271
1402745,197.4686,252.7684,44.63511,51.64761
1402763,197.5545,253.8305,44.64756,51.76446
1402780,197.6874,255.5576,44.66682,51.95318
1402799,197.8563,257.2211,44.69128,52.13346
1402815,198.0181,259.4601,44.7147,52.37383
1402832,198.371,261.3463,44.76572,52.57431
1402848,199.0054,263.3669,44.85718,52.78708
1402867,199.5882,264.8292,44.94096,52.93976
1402879,200.2118,266.4168,45.03033,53.10432
1402899,200.9579,268.1896,45.13688,53.28659
1402913,201.7341,270.0128,45.24731,53.47245
1402934,202.4393,271.6223,45.34728,53.63517
1402950,202.8356,272.7288,45.40331,53.74632
1402963,203.0415,274.0159,45.43237,53.87487
1402980,203.1899,275.2612,45.45329,53.9985
1403007,203.1916,277.0571,45.45354,54.17551
1403018,203.149,277.9052,45.44753,54.25858
1403029,203.0201,279.0291,45.42935,54.36814
1403047,202.5186,279.9691,45.35851,54.45933
1403063,202.0611,280.7903,45.29371,54.53867
1403079,201.637,281.7839,45.23353,54.63425
1403098,201.353,282.6411,45.19315,54.71635
1403113,201.001,283.5081,45.14303,54.79905
1403130,200.7244,284.3635,45.10357,54.88032
1403149,200.5801,285.1065,45.08297,54.95064
1403164,200.383,285.8706,45.05481,55.0227
1403181,200.2507,286.6067,45.03589,55.09188
1403199,200.1668,287.3919,45.02388,55.16541
1403214,200.1268,288.324,45.01816,55.25234
1403232,200.075,289.0404,45.01074,55.3189
1403247,200.0586,289.8685,45.00839,55.39556
1403264,200.0227,290.5676,45.00326,55.46006
1403282,199.9581,291.1518,44.99399,55.51378
1403300,199.8171,291.7943,44.97379,55.5727
1403314,199.6932,292.3291,44.95602,55.62161
1403333,199.6963,292.8412,44.95646,55.66833
1403349,199.6567,293.318,44.95078,55.71173
1403366,199.6402,293.7493,44.94842,55.7509
1403382,199.6938,294.1605,44.95611,55.78818
1403399,199.7407,294.5713,44.96283,55.82534
1403414,199.7248,294.9907,44.96055,55.86322
1403435,199.7054,295.315,44.95778,55.89246
1403449,199.687,295.5865,44.95514,55.9169
1403470,199.7446,295.839,44.96339,55.9396
1403483,199.7446,296.1478,44.96339,55.96733
1403500,199.759,296.3669,44.96546,55.98698
1403516,199.8267,296.5494,44.97517,56.00334
1403532,199.9131,296.8909,44.98755,56.0339
1403551,200.0554,297.209,45.00794,56.06232
1403568,200.1423,297.4211,45.02038,56.08125
1403581,200.2705,297.7205,45.03872,56.10794
1403598,200.3139,297.6835,45.04493,56.10464
1403614,200.5676,297.6863,45.08119,56.1049
1403633,200.7684,297.8024,45.10986,56.11523
1403648,201.0472,297.9316,45.14961,56.12674
1403665,201.272,298.0337,45.18162,56.13582
1403681,201.4574,298.1611,45.208,56.14714
1403697,201.5568,298.3679,45.22213,56.16552
1403714,201.6881,298.4948,45.24079,56.17679
1403732,201.7194,298.7628,45.24524,56.20056
1403753,201.7397,298.8568,45.24811,56.2089
1403774,201.8502,298.9164,45.26379,56.21418
1403786,201.9863,298.9408,45.2831,56.21634
1403803,202.2143,298.9798,45.31542,56.21979
1403819,202.4131,299.044,45.34357,56.22548
1403833,202.756,299.0335,45.39205,56.22454
1403852,203.0085,299.0493,45.42771,56.22594
1403867,203.3083,299.083,45.46998,56.22893
1403884,203.5373,299.0063,45.50223,56.22215
1403901,203.7418,299.0822,45.53099,56.22886
1403918,203.9213,299.2703,45.55621,56.2455
1403935,204.0611,299.4201,45.57585,56.25875
1403950,204.3649,299.6171,45.61845,56.27615
1403973,204.6517,299.697,45.65862,56.2832
1403987,204.8698,299.7884,45.68912,56.29127
1403999,205.1221,299.8143,45.72438,56.29356
1404016,205.3689,299.8163,45.7588,56.29374
1404037,205.6204,299.7072,45.79386,56.2841
1404050,205.8532,299.8803,45.82626,56.29938
1404067,206.1127,299.9912,45.86234,56.30915
1404092,206.638,300.0618,45.93523,56.31538
1404107,206.8776,300.1674,45.9684,56.32468
1404118,207.1026,300.1988,45.99952,56.32745
1404134,207.3239,300.2704,46.0301,56.33376
1404153,207.5123,300.3403,46.0561,56.3399
1404170,207.6933,300.3496,46.08106,56.34072
1404185,207.811,300.483,46.09728,56.35246
1404202,208.0199,300.5633,46.12605,56.35952
1404217,208.2171,300.5574,46.15317,56.359
1404233,208.312,300.6439,46.16621,56.3666
1404252,208.5159,300.7287,46.19421,56.37406
1404268,208.7984,300.7627,46.23296,56.37704
1404283,209.0615,300.935,46.269,56.39217
1404306,209.2789,301.1876,46.29875,56.41433
1404317,209.4766,301.3669,46.32578,56.43004
1404333,209.7122,301.636,46.35794,56.4536
1404352,209.8666,301.7412,46.37899,56.4628
1404366,209.9651,301.919,46.39242,56.47834
1404382,210.0998,302.1197,46.41078,56.49587
1404399,210.1773,302.3062,46.42132,56.51214
1404415,210.2793,302.5049,46.4352,56.52946
1404433,210.3556,302.5714,46.44559,56.53525
1404449,210.4051,302.7049,46.45233,56.54688
1404466,210.5285,302.8039,46.4691,56.5555
1404483,210.5936,302.9295,46.47795,56.56643
1404499,210.6781,303.0616,46.48941,56.57791
1404517,210.9044,303.1905,46.52013,56.5891
1404534,211.1075,303.2184,46.54767,56.59154
1404550,211.304,303.3148,46.57429,56.5999
1404567,211.5448,303.5211,46.60686,56.6178
1404583,211.8969,304.0369,46.65442,56.66249
1404604,212.0773,304.3022,46.67877,56.68543
1404619,212.3904,304.697,46.72095,56.71952
1404633,212.6829,304.9561,46.76031,56.74185
1404652,213.0185,305.2381,46.80539,56.76613
1404667,213.5344,305.4925,46.87454,56.78801
1404688,214.4905,305.2014,47.00223,56.76298
1404703,216.4227,304.3879,47.25844,56.69283
1404716,218.5308,303.5981,47.53516,56.62448
1404737,221.8394,302.9404,47.96367,56.56737
1404754,224.9335,302.7942,48.35806,56.55465
1404770,228.3973,302.7487,48.79244,56.5507
1404786,232.2397,302.4389,49.26566,56.52371
1404803,235.6613,301.8134,49.67955,56.46911
1404819,238.3049,301.0457,49.99457,56.40188
1404834,240.7322,300.19,50.28024,56.32667
1404852,242.8179,299.5957,50.523,56.27426
1404868,244.6863,299.2668,50.73836,56.24519
1404882,246.5438,299.1884,50.95052,56.23826
1404899,248.1297,298.8626,51.13015,56.20941
1404914,249.6722,298.4816,51.30351,56.17562
1404931,251.0328,298.195,51.45536,56.15016
1404949,252.4523,298.028,51.61272,56.13531
1404971,253.4996,297.9485,51.72812,56.12824
1404986,254.4433,297.8286,51.8316,56.11757
1405003,255.4752,297.5982,51.94421,56.09705
1405016,256.2661,297.3409,52.03014,56.07409
1405032,257.395,296.9543,52.15222,56.03956
1405049,259.1996,296.7552,52.34601,56.02176
1405065,261.215,296.6235,52.56042,56.00997
1405083,262.9663,296.4218,52.74506,55.9919
1405099,264.7791,296.3022,52.93455,55.98118
1405116,266.5781,296.2922,53.12097,55.98029
1405133,268.281,296.1959,53.29595,55.97164
1405150,269.4341,295.9968,53.41362,55.95377
1405166,270.4569,295.8646,53.51747,55.9419
1405188,271.2154,295.6903,53.59415,55.92623
1405203,271.6392,295.6167,53.63687,55.91962
1405219,271.9156,295.7513,53.66469,55.93172
1405235,271.4409,296.0518,53.61689,55.95872
1405252,271.0059,296.2164,53.573,55.97348
1405270,270.1136,296.4185,53.48267,55.99161
1405288,269.1728,296.5761,53.38702,56.00573
1405303,268.0335,296.7357,53.27061,56.02001
1405319,266.4416,297.0699,53.10688,56.0499
1405337,264.8338,297.3359,52.94024,56.07365
1405350,263.165,297.674,52.76591,56.1038
1405366,260.8973,298.3591,52.52676,56.16475
1405383,258.8979,298.7893,52.31372,56.20291
1405404,256.8286,299.2845,52.09106,56.24676
1405420,254.1952,299.883,51.80444,56.29961
1405437,251.7818,300.3526,51.53852,56.34098
1405454,249.6705,300.8136,51.30332,56.38152
1405467,247.9909,300.9737,51.11448,56.39557
1405484,247.7438,300.7191,51.08656,56.37322
1405506,248.1835,300.5254,51.1362,56.35619
1405519,248.9231,300.2743,51.21948,56.33409
1405536,249.9298,300.0195,51.33234,56.31165
1405549,251.6076,299.8146,51.51921,56.29359
1405567,253.0153,299.6183,51.67482,56.27626
1405583,254.432,299.4191,51.83036,56.25866
1405600,255.9292,299.2782,51.99358,56.2462
1405615,257.0927,299.2038,52.11961,56.23962
1405633,257.9063,299.2267,52.20729,56.24165
1405650,258.5076,299.2677,52.2719,56.24527
1405669,258.8377,299.2821,52.30728,56.24655
1405687,258.902,299.3502,52.31416,56.25257
1405706,258.6568,299.3965,52.2879,56.25666
1405721,258.4049,299.4826,52.26088,56.26427
1405736,257.9832,299.5188,52.21557,56.26747
1405752,257.2748,299.5114,52.13926,56.26682
1405773,256.6438,299.6423,52.07106,56.27838
1405788,256.0024,299.7809,52.00153,56.29061
1405804,255.2825,299.9979,51.92323,56.30975
1405820,254.5861,300.2215,51.84722,56.32944
1405842,253.9155,300.4286,51.77379,56.34767
1405857,253.2998,300.8205,51.70615,56.38212
1405871,252.5827,301.0746,51.62712,56.40442
1405888,251.9131,301.4935,51.55308,56.44113
1405911,251.3282,301.6958,51.4882,56.45883
1405924,250.8375,302.0648,51.43363,56.49107
1405943,250.3897,302.2614,51.38372,56.50823
1405958,250.0803,302.4946,51.34916,56.52856
1405971,249.6679,302.7004,51.30303,56.54649
1405987,249.3179,302.8803,51.26381,56.56215
1406004,248.9961,303.0043,51.22768,56.57293
1406020,248.7319,303.1027,51.19798,56.58148
1406037,248.4586,303.4109,51.16722,56.60825
1406054,248.2515,303.6434,51.14388,56.62841
1406071,248.0249,303.8396,51.11831,56.6454
1406088,247.7899,303.9403,51.09178,56.65413
1406104,247.5724,304.0243,51.06718,56.66139
1406119,247.2061,304.2227,51.0257,56.67855
1406135,246.7208,304.3842,50.97063,56.69252
1406155,246.2104,304.6426,50.91259,56.71482
1406170,245.624,305.0442,50.84571,56.74944
1406189,244.9543,305.3744,50.76908,56.77785
1406205,244.2783,305.7289,50.69151,56.80832
1406220,243.5441,306.0533,50.60694,56.83615
1406238,242.8754,306.4613,50.52965,56.87109
1406254,242.1349,306.9396,50.44377,56.91198
1406271,241.558,307.2491,50.37665,56.93838
1406288,241.1433,307.575,50.32828,56.96615
1406303,240.9143,307.7625,50.30153,56.9821
1406319,240.8882,307.9277,50.29848,56.99615
1406335,241.1928,308.066,50.33406,57.0079
1406353,241.6746,308.1601,50.39023,57.0159
1406369,242.427,308.2135,50.47768,57.02042
1406386,243.8253,308.3828,50.63936,57.03479
1406403,245.2878,308.4795,50.80727,57.04299
1406420,247.2317,308.5657,51.02861,57.0503
1406440,249.0553,308.6182,51.23434,57.05474
1406454,251.0406,308.7591,51.45624,57.06668
1406474,253.6482,308.8481,51.74445,57.07422
1406492,256.2172,308.7014,52.02483,57.0618
1406507,259.0194,308.6043,52.32673,57.05357
1406521,262.3213,308.4232,52.67724,57.03822
1406536,266.4274,307.9999,53.10541,57.00229
1406553,271.1574,307.5653,53.58829,56.96532
1406570,276.1259,307.0771,54.08391,56.92371
1406592,280.4449,306.5219,54.50534,56.87628
1406604,285.1421,305.6671,54.954,56.80301
1406620,289.8175,305.0168,55.39085,56.74708
1406637,294.4829,304.5606,55.81736,56.70774
1406656,299.3888,304.2574,56.25598,56.68155
1406671,303.7954,304.0854,56.64157,56.66669
1406688,308.4973,303.8211,57.04451,56.64381
1406704,313.2149,303.449,57.44017,56.61155
1406720,317.9091,303.256,57.82557,56.5948
1406737,323.4061,303.4024,58.26663,56.60751
1406754,328.9925,303.5932,58.70388,56.62405
1406772,334.2347,303.6051,59.10446,56.62509
1406788,340.3267,303.5563,59.5585,56.62085
1406805,345.9424,303.6022,59.96647,56.62484
1406821,353.0393,303.6151,60.46805,56.62595
1406838,359.8057,303.8201,60.93226,56.64372
1406855,366.8671,304.0925,61.4027,56.6673
1406871,373.6154,304.6638,61.83942,56.71664
1406887,380.0846,305.1704,62.24672,56.76031
1406904,386.3839,305.4649,62.63301,56.78564
1406924,391.5513,305.6945,62.94257,56.80537
1406937,397.2681,305.9835,63.27756,56.83016
1406958,402.2617,306.2438,63.56395,56.85247
1406975,406.2846,306.4696,63.79055,56.8718
1406991,409.9059,306.8333,63.99147,56.9029
1407005,413.46,307.0515,64.18589,56.92153
1407023,416.649,307.0449,64.35805,56.92096
1407038,419.7685,307.1454,64.52439,56.92954
1407054,422.071,306.9727,64.64588,56.9148
1407073,424.5975,306.9937,64.77795,56.91659
1407089,427.4995,307.2453,64.92808,56.93806
1407109,430.0651,307.4045,65.05941,56.95163
1407128,432.5738,307.6389,65.18659,56.97159
1407140,434.8825,308.0543,65.30257,57.0069
1407159,437.5429,308.4112,65.43495,57.0372
1407174,439.2873,308.6883,65.52103,57.06068
1407189,441.2717,308.6686,65.61828,57.05902
1407207,443.121,308.7059,65.70825,57.06218
1407227,445.0948,309.0277,65.80359,57.08942
1407243,446.8128,309.0273,65.88601,57.08937
1407257,447.9439,309.0529,65.93998,57.09155
1407270,449.2061,309.1273,65.99994,57.09783
1407287,450.1797,308.9397,66.04601,57.08197
1407306,450.862,308.937,66.07818,57.08174
1407322,451.455,308.8245,66.10608,57.07222
1407339,451.7621,308.6759,66.12051,57.05964
1407355,451.7897,308.1974,66.1218,57.01907
1407374,451.7685,307.7892,66.1208,56.98438
1407392,451.3748,307.3523,66.10231,56.94718
1407405,450.7888,306.4594,66.07473,56.87093
1407423,450.3263,305.342,66.05292,56.77507
1407441,449.579,303.5901,66.0176,56.62379
1407458,449.0066,301.6484,65.99048,56.45468
1407473,448.3867,298.9213,65.96104,56.21461
1407490,447.6144,295.6608,65.92428,55.92358
1407506,446.295,291.9591,65.86122,55.58778
1407524,444.9536,288.4231,65.79679,55.26156
1407541,442.9293,284.412,65.69895,54.88492
