Time Stamp(ms),Intersection,,Angle,
,x,y,x,y
1605976,318.4644,256.572,57.87062,52.06329
1605993,319.2543,256.8484,57.93451,52.0932
1606011,319.5164,257.0459,57.95565,52.11455
1606026,319.7369,257.3233,57.97343,52.14449
1606046,319.6543,257.4308,57.96677,52.15609
1606062,319.4264,257.5075,57.94839,52.16436
1606078,319.0107,257.6912,57.91483,52.18415
1606094,318.4559,258.0682,57.86993,52.22471
1606111,318.1516,258.276,57.84525,52.24704
1606128,317.9652,258.2803,57.83012,52.2475
1606144,317.9308,258.3142,57.82733,52.25114
1606159,317.9298,258.4504,57.82725,52.26576
1606175,318.003,258.5194,57.83319,52.27316
1606192,318.0275,258.2218,57.83518,52.24121
1606213,317.7838,257.9805,57.81538,52.21528
1606228,317.4362,257.917,57.78711,52.20845
1606244,317.1494,257.9782,57.76375,52.21504
1606263,316.7548,258.0596,57.73155,52.22379
1606279,316.4941,258.093,57.71025,52.22738
1606294,316.1258,257.8857,57.68011,52.20508
1606312,315.7519,257.6026,57.64947,52.17461
1606328,315.2801,257.2453,57.61073,52.13608
1606344,314.6295,256.8995,57.55718,52.09873
1606360,314.0124,256.7123,57.50623,52.07847
1606376,313.4677,256.7511,57.46114,52.08267
1606393,313.0712,256.8466,57.42825,52.09301
1606410,312.7758,256.8724,57.4037,52.09579
1606427,312.5406,256.8619,57.38414,52.09466
1606444,312.4229,256.6969,57.37434,52.07681
1606461,312.2907,256.371,57.36333,52.04151
1606476,312.2007,255.9385,57.35582,51.99459
1606492,312.3572,255.2243,57.36887,51.91689
1606511,312.6048,254.6471,57.38948,51.85389
1606528,313.7859,254.0181,57.48749,51.78503
1606545,314.6055,253.3767,57.55519,51.7146
1606560,315.1179,252.6575,57.59739,51.63538
1606576,315.5012,251.9796,57.6289,51.56044
1606592,315.6666,251.2921,57.64248,51.48418
1606611,315.6627,250.5769,57.64216,51.4046
1606627,315.5246,249.7914,57.63082,51.31686
1606643,315.2379,249.0315,57.60726,51.23166
1606661,314.7973,248.513,57.571,51.17334
1606676,314.4004,247.9296,57.53828,51.10756
1606693,313.9374,247.2682,57.50003,51.03275
1606710,313.4249,246.7141,57.45758,50.96988
1606726,312.9926,246.1912,57.42172,50.9104
1606743,312.594,245.7951,57.38858,50.86524
1606760,312.3449,245.469,57.36784,50.82799
1606777,312.1426,245.1706,57.35098,50.79386
1606793,311.8967,244.8305,57.33047,50.7549
1606810,311.6944,244.6513,57.31357,50.73434
1606827,311.5293,244.6915,57.29977,50.73895
1606843,311.3836,244.8805,57.28759,50.76063
1606861,311.3324,245.1759,57.2833,50.79447
1606877,311.3556,245.3446,57.28524,50.81377
1606893,311.3539,245.4155,57.2851,50.82188
1606910,311.4004,245.6353,57.28899,50.847
1606927,311.5797,246.0287,57.30399,50.89188
1606943,311.7433,246.5762,57.31766,50.9542
1606960,311.9438,247.2046,57.3344,51.02553
1606977,312.1435,247.7791,57.35105,51.09055
1606993,312.4033,248.1306,57.37271,51.13024
1607013,312.6239,248.3964,57.39107,51.16021
1607032,312.8384,248.7249,57.40891,51.19719
1607046,313.1293,249.2799,57.43307,51.25955
1607062,313.4066,249.8678,57.45607,51.32541
1607077,313.6417,250.3459,57.47555,51.37883
1607095,313.882,250.8434,57.49544,51.43428
1607112,314.0858,251.4811,57.51229,51.50518
1607129,314.3105,252.3814,57.53085,51.60489
1607144,314.5399,253.8706,57.54979,51.76886
1607161,314.7133,255.6155,57.56408,51.95948
1607178,314.8417,257.5775,57.57466,52.17189
1607194,314.9146,259.5261,57.58067,52.38088
1607212,314.7906,261.0289,57.57045,52.54071
1607229,314.6282,262.3351,57.55707,52.67869
1607245,314.4219,263.5492,57.54005,52.80617
1607262,314.0422,264.3971,57.50869,52.89476
1607278,313.4975,264.8421,57.46361,52.94111
1607294,312.5901,264.6649,57.38826,52.92266
1607311,311.6695,264.5945,57.31149,52.91533
1607328,310.5681,264.5266,57.21923,52.90826
1607345,309.2462,264.7716,57.10788,52.93377
1607362,307.4015,265.1637,56.95137,52.97453
1607378,305.4174,265.5995,56.78156,53.01976
1607395,303.0574,265.9939,56.57754,53.0606
1607413,300.0774,266.6182,56.31676,53.1251
1607429,297.3877,267.2184,56.07827,53.18693
1607445,294.5471,267.752,55.82315,53.24175
1607462,291.6143,267.9995,55.55621,53.26712
1607479,288.963,268.2469,55.31172,53.29247
1607495,286.3121,268.54,55.06422,53.32244
1607512,283.7479,269.0574,54.82187,53.37526
1607528,281.1238,269.7565,54.5708,53.44641
1607547,279.0056,270.1976,54.36586,53.4912
1607561,276.9453,270.449,54.16452,53.51667
1607578,274.9085,270.5962,53.96356,53.53157
1607596,272.756,270.842,53.74904,53.55644
1607615,271.0947,271.1326,53.58196,53.58579
1607629,269.0398,271.7669,53.37346,53.64973
1607647,267.111,272.3467,53.17588,53.708
1607665,265.187,272.9668,52.97696,53.77014
1607679,262.9352,273.7237,52.74179,53.84575
1607696,260.6734,274.6212,52.50301,53.93505
1607711,258.1288,275.8681,52.23122,54.05848
1607730,255.7073,277.2406,51.96947,54.1935
1607746,253.1317,278.7868,51.68765,54.34457
1607762,250.2764,280.887,51.37107,54.54799
1607779,247.4229,283.1628,51.05026,54.76615
1607796,244.5318,285.7955,50.72063,55.01563
1607813,241.6661,288.9119,50.38924,55.30698
1607829,239.0598,291.7367,50.08379,55.56742
1607845,236.3114,294.8734,49.7574,55.85263
1607862,233.6095,297.5151,49.43219,56.08963
1607880,230.889,300.1627,49.10033,56.32427
1607897,228.2061,302.7325,48.76865,56.54929
1607916,226.0072,304.8097,48.4935,56.72924
1607932,224.101,306.3193,48.25253,56.85894
1607947,221.6799,307.5016,47.94316,56.9599
1607965,219.7479,308.4341,47.69361,57.03914
1607981,218.4467,309.3468,47.52418,57.11638
1607998,216.8383,311.171,47.31322,57.26979
1608026,216.1468,312.3702,47.222,57.36995
1608034,215.4627,313.1646,47.13145,57.436
1608045,214.6641,314.049,47.02535,57.50925
1608062,213.7287,314.758,46.90054,57.56776
1608080,213.0545,315.2003,46.81022,57.60417
1608096,212.3868,315.7576,46.72047,57.64994
1608113,211.6611,316.2396,46.62258,57.68944
1608130,210.8557,316.5876,46.51352,57.71789
1608147,209.8474,316.8226,46.37638,57.73709
1608163,208.7899,316.838,46.23179,57.73834
1608180,207.6435,316.9825,46.07419,57.75014
1608196,206.5668,317.0518,45.92536,57.75579
1608212,205.1574,317.1186,45.7293,57.76123
1608230,204.0117,316.9686,45.56892,57.749
1608246,202.6728,316.7498,45.3803,57.73115
1608263,201.3613,316.3373,45.19434,57.69743
1608280,200.2219,315.9946,45.03177,57.66937
1608297,199.2156,315.4865,44.88742,57.62769
1608314,198.2544,314.8723,44.74887,57.57718
1608331,197.7435,313.7132,44.67495,57.48147
1608347,196.9829,312.584,44.56456,57.38775
1608365,196.5526,311.5001,44.50191,57.29733
1608380,196.2664,310.2752,44.46017,57.19462
1608396,196.0855,308.4655,44.43377,57.04181
1608414,195.8325,306.7921,44.39679,56.89938
1608430,195.6971,304.9483,44.37697,56.74118
1608450,195.6859,303.2554,44.37534,56.59475
1608467,195.952,301.6047,44.41426,56.45086
1608483,196.1463,299.9373,44.44264,56.3044
1608499,196.4044,297.9435,44.48031,56.12779
1608516,196.6034,296.2328,44.50932,55.97495
1608533,196.8392,294.6165,44.54365,55.82943
1608550,197.1067,292.7339,44.58255,55.65855
1608566,197.2823,290.7793,44.60806,55.47954
1608585,197.3498,288.8252,44.61786,55.29893
1608598,197.3456,286.688,44.61725,55.0995
1608615,197.3865,284.6644,44.62319,54.90882
1608632,197.4492,282.6719,44.63229,54.7193
1608649,197.5229,280.6469,44.64297,54.52484
1608666,197.6579,278.765,44.66255,54.34244
1608681,197.7005,276.7887,44.66872,54.14914
1608698,197.7392,274.8304,44.67432,53.95581
1608717,197.7812,272.9193,44.68041,53.76539
1608736,197.8644,270.9385,44.69246,53.56619
1608750,197.7563,268.944,44.6768,53.36369
1608767,197.6234,266.9896,44.65754,53.16338
1608782,197.5051,265.1058,44.6404,52.96852
1608798,197.3797,263.1229,44.6222,52.76149
1608817,197.1139,260.9917,44.5836,52.53677
1608834,196.9238,259.1432,44.55596,52.33998
1608850,196.763,257.0603,44.53256,52.1161
1608867,196.5665,255.0415,44.50395,51.89695
1608883,196.4126,253.1153,44.48151,51.68584
1608898,196.1972,251.212,44.45007,51.47529
1608915,195.9981,249.3085,44.42099,51.26275
1608932,195.8468,247.492,44.39887,51.05808
1608949,195.6683,245.5776,44.37276,50.84041
1608966,195.5001,243.5374,44.34813,50.60616
1608982,195.3297,241.5858,44.32316,50.37989
1608998,195.1996,239.6758,44.30408,50.15633
1609014,195.1091,237.7899,44.2908,49.93353
1609032,195.3253,236.058,44.32251,49.72708
1609050,195.5961,234.3358,44.36219,49.52003
1609065,195.8035,232.4797,44.39255,49.29491
1609081,196.0369,230.5907,44.42667,49.06366
1609099,196.4898,228.9115,44.49276,48.85629
1609116,196.8171,227.2191,44.54043,48.64552
1609132,197.2075,225.4134,44.59719,48.41868
1609150,197.5006,223.7825,44.63974,48.21205
1609166,197.7745,222.2338,44.67944,48.01427
1609182,198.2618,220.4597,44.74993,47.78583
1609200,198.5563,218.9152,44.79246,47.5853
1609216,198.9497,217.1681,44.84916,47.35662
1609233,199.2805,215.5746,44.89675,47.14629
1609250,199.6283,214.087,44.94671,46.94842
1609266,199.8915,212.4198,44.98445,46.72491
1609282,200.2863,210.9184,45.04098,46.52204
1609299,200.8379,209.4837,45.11977,46.32674
1609316,201.4009,208.149,45.19996,46.14381
1609333,202.1223,206.9636,45.30239,45.9803
1609350,202.9521,205.9255,45.41975,45.83631
1609367,203.7527,204.7343,45.53252,45.67018
1609384,204.5676,203.7193,45.64685,45.52783
1609399,205.6234,202.774,45.79428,45.3946
1609416,206.7753,201.9073,45.95423,45.2719
1609433,208.2144,201.1037,46.1528,45.15767
1609450,209.8342,200.1071,46.37458,45.01534
1609467,212.0973,198.991,46.68147,44.8551
1609483,215.6259,197.5011,47.15308,44.63981
1609503,219.0452,196.2358,47.60225,44.45572
1609518,223.016,194.8374,48.11435,44.25089
1609534,227.8498,193.4095,48.72427,44.04025
1609552,232.2047,192.4,49.26139,43.89043
1609568,237.0375,191.6878,49.84406,43.78428
1609584,241.6646,190.8174,50.38907,43.65403
1609601,245.9934,190.0343,50.88786,43.53637
1609617,250.2538,189.2408,51.36855,43.41666
1609633,254.4475,188.2791,51.83205,43.27095
1609651,258.202,187.4128,52.23909,43.13909
1609667,262.2203,186.7908,52.6666,43.04406
1609684,266.592,186.6948,53.1224,43.02937
1609701,270.3254,186.6895,53.50415,43.02855
1609717,273.4982,186.4693,53.82325,42.99483
1609733,276.6723,185.662,54.13771,42.87086
1609751,280.013,184.7282,54.46358,42.72684
1609769,282.7544,183.838,54.72717,42.5889
1609783,286.1417,182.6325,55.04821,42.40115
1609800,289.6784,181.3299,55.37799,42.19701
1609817,293.0868,179.894,55.6907,41.97043
1609834,297.4801,178.1653,56.08651,41.6955
1609854,303.3463,177.2997,56.60263,41.55695
1609869,308.6262,176.4629,57.05543,41.42243
1609884,316.7318,175.9937,57.72968,41.34676
1609901,323.8644,175.4483,58.30291,41.25859
1609917,331.1736,174.7879,58.87168,41.15149
1609934,338.4944,174.4184,59.42321,41.09143
1609951,345.2473,173.8491,59.9165,40.99865
1609967,351.5664,173.4875,60.36521,40.9396
1609985,357.1545,173.1414,60.75197,40.88298
1610001,362.0962,172.7889,61.0864,40.82519
1610018,367.2916,172.4202,61.43053,40.76466
1610035,371.788,172.1004,61.72237,40.71206
1610051,376.1682,171.8672,62.00144,40.67365
1610070,380.1746,171.6429,62.2523,40.63667
1610086,384.6014,171.3961,62.52472,40.59593
1610103,389.0351,171.2507,62.79265,40.57191
1610119,393.4843,170.9995,63.0567,40.53035
1610134,398.7655,170.4289,63.36404,40.43579
1610153,403.7784,169.8234,63.64981,40.33516
1610168,409.5389,168.9738,63.97124,40.19342
1610185,415.138,167.9813,64.27674,40.02711
1610202,420.1561,166.9221,64.54491,39.84873
1610219,424.8827,166.0933,64.79279,39.70849
1610235,429.6903,165.3049,65.04031,39.57457
1610252,433.9035,164.6898,65.25351,39.46971
1610270,438.1396,163.846,65.46446,39.32536
1610286,441.8655,163.0684,65.64723,39.19181
1610301,445.6958,162.2392,65.83248,39.04883
1610319,449.1532,161.6806,65.99744,38.95219
1610335,452.6731,161.1115,66.1632,38.85344
1610352,456.1166,160.5759,66.3233,38.76026
1610368,459.7129,160.1266,66.48835,38.68192
1610385,463.1761,159.7237,66.64526,38.61151
1610401,466.2555,159.3594,66.78312,38.54774
1610419,469.0042,159.1864,66.90488,38.51741
1610434,471.9557,158.9687,67.03429,38.4792
1610452,474.7122,159.0636,67.15392,38.49586
1610469,477.1855,159.2521,67.26026,38.52892
1610485,479.5984,159.6219,67.36311,38.5937
1610502,481.7324,160.0606,67.45332,38.67039
1610523,483.1276,160.839,67.51195,38.80607
1610536,484.4467,162.0801,67.5671,39.02132
1610551,485.5793,163.2412,67.61426,39.22153
1610569,486.4377,164.4682,67.64987,39.43187
1610586,487.153,165.8138,67.67947,39.66107
1610602,488.1019,166.9601,67.71861,39.85514
1610619,489.2582,168.2942,67.76614,40.07964
1610635,490.3972,169.7077,67.81276,40.31589
1610653,491.1008,171.0463,67.84147,40.5381
1610674,491.812,172.092,67.87041,40.71067
1610690,492.5567,172.9335,67.90065,40.8489
1610702,493.3437,173.5003,67.93252,40.94168
1610719,493.8885,173.8774,67.95453,41.00327
1610737,494.1074,174.2585,67.96336,41.06539
1610753,494.4731,174.7705,67.9781,41.14867
1610770,495.1031,175.5598,68.00345,41.27663
1610787,495.7607,176.4553,68.02985,41.4212
1610803,496.5522,177.5672,68.06154,41.59982
1610819,497.079,178.4494,68.08258,41.74084
1610836,497.6286,179.3905,68.1045,41.8906
1610854,498.46,180.4172,68.13757,42.05317
1610870,499.4479,182.0648,68.17676,42.31235
1610888,500.3358,183.6432,68.21185,42.55865
1610904,501.2367,185.1872,68.24735,42.79772
1610920,502.1447,186.8384,68.28302,43.05134
1610937,502.9947,188.5261,68.31631,43.30844
1610953,503.9751,190.6554,68.35459,43.62973
1610970,504.7706,193.3519,68.38556,44.03173
1610987,505.5368,195.8029,68.41531,44.39246
1611008,506.3451,198.1261,68.44659,44.73032
1611024,507.242,200.7474,68.48122,45.10685
1611040,508.2347,204.215,68.51942,45.59744
1611055,508.9194,209.6904,68.54569,46.35496
1611071,509.3175,215.2589,68.56094,47.10442
1611087,509.1583,221.8019,68.55484,47.95884
1611103,507.7387,230.1714,68.50035,49.01205
1611127,506.2514,237.2611,68.44297,49.87068
1611140,504.2668,245.3567,68.36596,50.81516
1611154,502.2279,253.0564,68.28629,51.67936
1611171,500.3698,259.6079,68.2132,52.38961
1611187,498.4589,265.6114,68.13754,53.02099
1611205,496.6629,270.455,68.06596,53.51727
1611221,494.8011,275.8937,67.9913,54.06101
1611238,493.4825,281.1846,67.93813,54.57665
1611255,492.0123,286.7839,67.87856,55.1085
1611271,490.4004,292.7666,67.81289,55.66153
1611288,488.0182,299.2651,67.71516,56.24504
1611305,485.334,304.9582,67.60406,56.74203
1611321,482.2732,310.8975,67.47608,57.24687
1611339,479.7223,315.8316,67.36836,57.65601
1611355,476.6644,320.8994,67.23794,58.06685
1611373,474.1948,324.5402,67.13156,58.35628
1611388,471.3506,328.5428,67.00787,58.66909
1611406,469.2875,332.1329,66.91737,58.94497
1611422,467.414,336.0623,66.83459,59.24195
1611438,465.5002,340.082,66.74944,59.5405
1611455,463.2664,344.0882,66.64931,59.83286
1611472,460.9106,347.4493,66.54284,60.07425
1611488,458.7966,350.6378,66.4465,60.30004
1611506,456.506,352.7206,66.34128,60.44585
1611522,453.8895,354.2946,66.21999,60.55519
1611538,450.8347,355.4222,66.0769,60.63306
1611555,446.9107,355.5891,65.89069,60.64455
1611571,443.4086,355.9398,65.72218,60.66868
1611588,439.8281,355.7725,65.54761,60.65717
1611606,436.45,355.6104,65.38073,60.64602
1611623,433.1748,355.1166,65.21688,60.61199
1611638,429.6818,354.877,65.03987,60.59546
1611656,425.9673,354.347,64.84902,60.55881
1611676,423.14,353.8255,64.70193,60.52268
1611693,421.084,353.7038,64.59393,60.51423
1611708,418.7813,353.5885,64.47197,60.50623
1611723,416.7666,353.2613,64.36436,60.48349
1611738,414.3009,352.7905,64.2315,60.45072
1611760,412.9397,352.4401,64.1576,60.42629
1611775,411.9225,352.2531,64.10212,60.41323
1611792,411.0981,351.8697,64.05699,60.38644
1611807,410.2847,351.3706,64.01232,60.35149
1611824,409.5392,350.7172,63.97126,60.30561
1611840,408.3418,349.603,63.90504,60.2271
1611859,407.1103,348.4634,63.83662,60.1464
1611876,405.6804,347.2048,63.75675,60.05682
1611892,403.8719,345.8652,63.65509,59.96093
1611909,401.9358,344.5513,63.54543,59.86633
1611925,399.8589,343.0617,63.42686,59.75844
1611941,397.1563,341.351,63.27109,59.63366
1611957,394.6376,339.8933,63.12438,59.52659
1611973,391.3942,338.2737,62.93325,59.40684
1611991,388.6161,336.9134,62.76753,59.3056
1612006,385.4008,335.3238,62.57338,59.18653
1612024,381.6864,333.5005,62.34589,59.04891
1612040,377.8393,331.7539,62.10659,58.91605
1612056,373.4771,329.7443,61.83059,58.76191
1612073,368.1176,327.4075,61.48456,58.58093
1612090,363.3524,325.2979,61.1703,58.41592
1612106,358.1532,323.0355,60.82012,58.23723
1612123,352.718,320.6766,60.44567,58.04898
1612140,347.6159,318.5699,60.08613,57.87916
1612157,342.0443,316.4321,59.68434,57.70518
1612173,336.3654,314.2985,59.26464,57.52987
1612191,331.2541,312.5874,58.87784,57.38803
1612208,326.3782,311.0242,58.50061,57.2575
1612223,321.6054,309.513,58.12334,57.13041
1612241,317.193,307.9266,57.7673,56.99606
1612257,313.0943,306.3622,57.43016,56.86261
1612273,308.7953,304.55,57.06975,56.70683
1612291,304.9928,302.9948,56.74501,56.5721
1612307,302.0116,301.6222,56.48643,56.45239
1612324,299.2303,300.1435,56.24196,56.32258
1612340,296.3749,298.6949,55.9877,56.19455
1612357,293.949,297.3726,55.76901,56.07692
1612373,291.861,295.9755,55.57881,55.95186
1612391,289.7043,294.6157,55.38039,55.82936
1612408,287.8593,293.4093,55.20905,55.72003
1612425,286.0723,292.2776,55.04168,55.6169
1612447,284.4129,291.4478,54.885,55.54095
1612460,282.696,290.6181,54.72159,55.46471
1612476,280.827,289.7125,54.5422,55.38115
1612492,278.7827,289.0977,54.34417,55.32422
1612510,276.8091,288.5009,54.15115,55.2688
1612525,274.4394,287.9188,53.917,55.2146
1612542,271.9502,287.531,53.66816,55.17841
1612558,269.4719,287.1166,53.41747,55.13966
1612574,266.8053,286.8011,53.14439,55.11011
1612592,263.7366,286.4477,52.82578,55.07696
1612610,260.8765,286.1332,52.52456,55.04741
1612627,257.626,285.8456,52.17713,55.02034
1612643,254.4048,285.5317,51.82739,54.99077
1612659,251.1329,284.9247,51.4665,54.93346
1612675,246.6281,283.634,50.96011,54.81104
1612694,242.2239,282.2397,50.45411,54.67795
1612709,237.562,280.9044,49.90646,54.54966
1612725,233.9245,279.8468,49.47033,54.44749
1612742,230.2455,278.7349,49.02118,54.33951
1612759,225.6739,277.2235,48.45153,54.19183
1612776,221.4809,275.6943,47.91757,54.04132
1612792,216.9429,273.9516,47.32699,53.86846
1612810,212.8201,272.4655,46.77875,53.71992
1612826,209.2999,271.5934,46.30161,53.63226
1612842,205.4556,270.7723,45.7709,53.54939
1612860,202.322,270.1191,45.33068,53.48323
1612875,198.908,269.0929,44.84315,53.37888
1612892,195.6637,267.7699,44.37209,53.24358
1612910,193.2953,266.6022,44.02334,53.12346
1612927,190.7988,265.2966,43.65124,52.98834
1612943,188.7769,263.7656,43.34646,52.82882
1612959,186.9696,262.3552,43.07141,52.68081
1612976,185.8416,260.7552,42.89848,52.51169
1612993,184.9412,259.3593,42.75974,52.36307
1613011,184.6234,258.1148,42.71064,52.22972
1613029,185.4616,257.1202,42.84,52.12257
1613043,186.5981,256.2693,43.01457,52.03049
1613059,188.3911,255.5295,43.28796,51.95013
1613076,191.4909,255.0387,43.75486,51.89664
1613092,194.4604,254.6215,44.19542,51.85109
1613108,197.9241,254.5082,44.7011,51.8387
1613126,202.5849,254.9241,45.36788,51.88414
1613142,207.3259,255.3279,46.03038,51.92817
1613159,212.8771,255.8708,46.7864,51.98723
1613175,219.7419,255.7822,47.69283,51.9776
1613192,225.6711,254.7318,48.45118,51.86314
1613209,231.6569,252.5307,49.19445,51.62138
1613227,236.8202,250.7491,49.81815,51.42378
1613242,242.3796,249.2827,50.47219,51.25986
1613260,247.1075,248.3501,51.01453,51.15499
1613276,251.6968,247.2434,51.52911,51.02993
1613292,255.2742,246.1054,51.92232,50.90062
1613309,258.6852,244.9605,52.29094,50.7698
1613327,262.2939,244.2645,52.67436,50.68991
1613346,265.4298,243.9976,53.00216,50.65921
1613359,269.292,243.7749,53.39917,50.63355
1613377,272.6022,243.6834,53.73363,50.623
1613393,276.2185,243.6426,54.09304,50.61829
1613413,279.313,243.7946,54.39573,50.63582
1613426,283.1121,244.3107,54.76132,50.69522
1613443,286.8698,244.8736,55.11655,50.75984
1613460,290.408,245.405,55.44535,50.82068
1613475,294.2426,245.7754,55.79561,50.863
1613493,297.5218,246.0853,56.09023,50.89833
1613509,300.9543,246.4804,56.39386,50.94331
1613526,304.553,247.1683,56.70709,51.02142
1613544,307.7377,247.9932,56.98,51.11474
1613560,310.7586,248.8364,57.23522,51.20974
1613576,313.3605,249.3845,57.45225,51.27128
1613593,315.7199,249.9567,57.64685,51.33535
1613611,317.6321,250.5361,57.80305,51.40004
