Time Stamp(ms),Intersection,,Angle,
,x,y,x,y
818471,318.056,253.728,57.8375,51.7532
818487.1,318.3964,253.7849,57.8651,51.75946
818505.6,318.5683,253.9469,57.87903,51.77723
818521.7,318.3482,254.3194,57.8612,51.81804
818537.8,317.5654,254.6781,57.79763,51.85728
818553.3,316.4972,255.0076,57.71051,51.89325
818574.3,315.174,255.5394,57.60201,51.9512
818590.8,314.236,256.0604,57.5247,52.00783
818604.3,313.382,256.7468,57.45403,52.08221
818622.7,312.2734,257.2239,57.36188,52.13377
818639.7,311.1699,257.0532,57.2697,52.11534
818655.4,309.5952,256.5105,57.13734,52.05663
818678.7,308.066,256.3318,57.0079,52.03727
818696.9,307.2779,256.4962,56.94084,52.05508
818708.1,306.5147,256.8339,56.87566,52.09163
818722.3,305.7988,257.1057,56.81432,52.12101
818742.4,305.1323,257.3105,56.75703,52.14312
818758.8,304.3815,257.685,56.69228,52.18348
818774.9,304.0882,258.375,56.66692,52.25767
818792.2,303.8479,258.948,56.64613,52.31909
818810.2,303.5956,259.1815,56.62426,52.34407
818826.1,303.6801,259.3096,56.63158,52.35776
818844.3,304.1429,259.4561,56.67165,52.37341
818859.8,304.7779,259.6353,56.72649,52.39254
818875.1,305.7445,259.9272,56.80966,52.42366
818891.6,306.4653,260.1932,56.87143,52.45197
818903.9,307.4045,260.496,56.95163,52.48417
818921.3,308.6659,260.6767,57.05879,52.50336
818938.8,309.9106,260.7787,57.16393,52.51418
818954.9,311.4323,260.9174,57.29166,52.5289
818975.3,313.1289,261.0401,57.43304,52.5419
818991.3,315.1732,261.159,57.60195,52.5545
819009.1,318.0724,261.3224,57.83883,52.5718
819025.4,320.4517,261.4284,58.03093,52.58301
819042.1,323.5242,261.4551,58.27599,52.58583
819057.6,327.2725,261.3578,58.57042,52.57553
819070.4,332.1927,261.2628,58.94953,52.56549
819089.4,336.2775,261.1087,59.25806,52.54916
819105,341.0552,260.7987,59.61198,52.5163
819121.4,346.2874,260.5971,59.9912,52.4949
819138.6,351.6585,260.248,60.37165,52.45781
819159.3,356.5952,259.8179,60.71367,52.41201
819172.3,360.8625,259.4633,61.00356,52.37418
819188.8,365.4979,259.2255,61.31258,52.34877
819205.9,370.5427,259.1295,61.64209,52.33851
819221.9,375.4778,259.3687,61.9578,52.36408
819238.3,380.3857,259.7918,62.26541,52.40923
819254.7,384.7816,260.7142,62.5357,52.50734
819271.6,389.0526,261.7401,62.79369,52.61595
819288.8,393.6065,263.168,63.06389,52.76623
819308.6,397.8791,264.5103,63.31291,52.90656
819326.8,402.0345,266.0379,63.55104,53.06516
819341.4,405.9908,267.3672,63.77413,53.20223
819358.1,409.4079,268.8022,63.96401,53.34922
819373.8,413.4936,270.2634,64.18771,53.49786
819393.8,417.0432,271.3539,64.37917,53.60812
819408.1,420.5375,272.4901,64.56509,53.72239
819424.6,424.0454,273.8901,64.7492,53.86234
819444.6,427.3213,275.5013,64.91891,54.02225
819459.8,430.4605,276.8827,65.07954,54.15838
819475.3,433.0442,278.0393,65.2103,54.27168
819493.5,435.7007,278.9538,65.34342,54.36082
819510.7,438.3082,279.9485,65.47279,54.45734
819523.8,441.0568,281.1533,65.60778,54.57364
819544.1,443.3257,282.2668,65.71817,54.68053
819560.6,445.497,283.1714,65.82294,54.76698
819572.9,447.7603,283.8494,65.93123,54.83151
819593.5,449.7407,284.2617,66.02525,54.87066
819609.2,451.5136,284.8612,66.10883,54.92745
819624,453.1261,285.4368,66.18438,54.98182
819649.9,454.218,285.7383,66.23528,55.01024
819660.3,455.3047,285.907,66.28574,55.02612
819675.1,456.3702,286.0268,66.33501,55.0374
819694.8,457.4094,286.3001,66.38288,55.0631
819714,458.1523,286.3915,66.417,55.07168
819728.1,458.6672,286.2441,66.44058,55.05783
819745,459.1579,286.2312,66.46302,55.05662
819759.4,459.3557,286.1908,66.47205,55.05282
819777,459.4753,286.3019,66.47752,55.06326
819792.9,459.1298,286.3137,66.46174,55.06437
819811.7,458.9102,286.2592,66.4517,55.05925
819829.5,458.6213,286.3061,66.43848,55.06366
819841.8,458.0853,286.3049,66.41392,55.06355
819864.7,457.6001,286.3407,66.39165,55.06691
819877.1,457.1019,286.5587,66.36874,55.08737
819892.4,456.3704,286.9454,66.33501,55.12363
819909.8,455.558,287.4464,66.29747,55.17051
819926.8,454.4537,288.4298,66.24625,55.26219
819944.7,453.3458,289.7333,66.19464,55.38307
819963,452.1357,291.7512,66.13803,55.56875
819978.1,450.6546,295.3997,66.06841,55.90009
819994.1,448.963,299.918,65.98841,56.3027
820012.6,447.5622,304.6096,65.92179,56.71197
820028.8,446.3159,309.0064,65.86222,57.08761
820045.1,445.4294,312.0237,65.81969,57.34106
820061.9,443.6485,314.6004,65.7338,57.55478
820078.3,442.2703,317.6063,65.66694,57.80095
820094.7,441.2693,320.7067,65.61816,58.05139
820110.9,439.9974,322.8472,65.55592,58.22227
820128.9,438.0615,324.2792,65.46061,58.33569
820143.8,435.8169,325.6109,65.34922,58.4405
820160.1,433.2831,327.1317,65.22233,58.55944
820177.2,430.7224,328.4575,65.09285,58.66248
820193.6,426.9793,329.4355,64.90129,58.73809
820211.3,423.4582,330.1974,64.71855,58.79678
820232,419.9704,330.6171,64.53509,58.82903
820246.1,416.2263,331.0705,64.33535,58.86378
820262.6,412.4243,331.796,64.12951,58.91927
820279.4,407.8885,332.3349,63.87989,58.96036
820297.1,404.1099,332.7896,63.66851,58.99496
820313.4,400.0443,333.4969,63.43749,59.04864
820332.3,396.7911,334.4103,63.2499,59.11772
820346,393.7116,335.6685,63.07006,59.21241
820362.5,389.926,337.6104,62.8459,59.35755
820382.1,386.1597,339.6751,62.61944,59.51051
820404.2,382.635,341.4776,62.40432,59.64292
820416.5,379.901,342.6747,62.23531,59.73029
820430.5,376.0127,344.2381,61.99162,59.8437
820449.6,372.1025,345.5502,61.74258,59.93829
820462.4,368.5624,346.4798,61.51358,60.00499
820482.4,365.4809,346.9175,61.31145,60.03629
820492.4,362.093,347.1498,61.08619,60.05289
820509.6,358.8277,347.2209,60.86599,60.05797
820527.4,356.0238,347.4651,60.67446,60.07538
820545.1,352.9763,347.4261,60.46367,60.07261
820562.9,350.1688,347.3336,60.26702,60.06601
820579.3,347.8043,346.8087,60.09955,60.02851
820594.6,345.0173,345.8417,59.89994,59.95924
820612.5,342.2842,345.4361,59.70184,59.93009
820633.6,340.4231,345.5696,59.56558,59.93969
820646.3,338.344,345.9185,59.41206,59.96475
820662.8,336.2932,346.1934,59.25924,59.98447
820679.4,334.184,346.7916,59.10063,60.0273
820696.7,331.9927,347.4828,58.93428,60.07664
820714,330.0212,348.3992,58.78323,60.14184
820730.6,327.5888,349.2836,58.59504,60.20452
820745.8,325.0726,349.9713,58.39821,60.2531
820763.5,322.4239,350.7229,58.18861,60.30602
820781.6,319.9477,351.2578,57.99041,60.34357
820799.4,317.6848,351.4386,57.80734,60.35625
820814.4,315.0454,351.6422,57.59143,60.37051
820832.1,312.9347,352.0627,57.41691,60.39993
820850.6,310.8131,352.4101,57.23979,60.42419
820863.8,308.5876,352.5921,57.05216,60.43689
820879.5,306.4556,352.642,56.87061,60.44037
820895.4,304.0253,352.3813,56.66148,60.42218
820913.6,301.5196,352.375,56.44342,60.42175
820935.4,299.1948,352.5488,56.23882,60.43388
820947.6,296.9525,352.7567,56.03941,60.44837
820967.5,294.129,352.858,55.78532,60.45542
820981.1,290.5886,353.1248,55.46199,60.474
820996.6,287.0411,353.4505,55.13259,60.49665
821011.4,283.3566,353.9784,54.78462,60.53328
821029.9,279.6496,354.6031,54.42838,60.57653
821048.9,276.518,355.0176,54.12252,60.60516
821064.5,273.3188,355.0614,53.80534,60.60818
821080,270.3174,354.8149,53.50333,60.59116
821096.4,267.834,354.4341,53.25016,60.56484
821112.1,265.4941,353.92,53.00883,60.52923
821129.8,263.3445,353.5667,52.78473,60.50471
821146.3,261.7139,352.5763,52.61319,60.43579
821162.4,261.7115,350.6112,52.61293,60.29816
821179.3,262.4092,349.2176,52.68649,60.19985
821194.8,263.9673,348.213,52.8499,60.12862
821212.8,265.2939,347.7667,52.98806,60.09687
821230.5,266.5834,347.7257,53.12152,60.09395
821246.3,267.6046,347.7602,53.22662,60.09641
821263.1,268.0311,347.6642,53.27036,60.08957
821278.6,268.0589,347.4647,53.2732,60.07535
821295.6,268.0678,347.2551,53.27412,60.06041
821313.1,267.4657,347.1512,53.21235,60.05299
821331.4,266.584,347.1534,53.12158,60.05315
821345.5,265.2427,347.1323,52.98274,60.05164
821362.4,263.4564,347.0748,52.79645,60.04753
821379.6,261.1709,346.8628,52.55576,60.03239
821396.1,258.9051,346.6595,52.3145,60.01785
821413.3,255.9835,346.1813,51.99947,59.9836
821433.1,253.3669,345.9133,51.71353,59.96437
821450.3,250.9655,345.7219,51.44788,59.95063
821462.7,248.2935,345.2263,51.14862,59.915
821479.4,245.8882,344.8241,50.87586,59.88601
821494.9,243.0783,344.2332,50.55313,59.84335
821513.4,240.6036,343.5938,50.26519,59.79705
821530.8,238.4847,343.0179,50.01585,59.75525
821547.1,236.3887,342.2036,49.76664,59.69596
821563.7,234.5945,341.276,49.55125,59.62816
821583.6,233.2094,340.3181,49.38366,59.55787
821597,232.2259,338.8136,49.26397,59.44686
821613.3,231.1237,337.5663,49.12914,59.35427
821633.6,230.8194,336.3784,49.09179,59.26561
821647.3,231.6916,334.909,49.1987,59.15532
821665.3,232.7514,333.4902,49.32799,59.04813
821680.7,233.6547,332.0598,49.43767,58.93939
821696.6,234.8102,330.4627,49.57725,58.81717
821716.3,235.6796,329.032,49.68174,58.70694
821734.4,236.6589,327.53,49.7989,58.59047
821751.4,237.3289,326.122,49.87874,58.48056
821767.1,237.6938,324.6377,49.92212,58.36397
821782.6,237.8282,323.0508,49.93808,58.23845
821797.8,237.6894,321.317,49.92159,58.10028
821813.9,237.2857,319.406,49.8736,57.94675
821834.9,236.8221,317.8455,49.81837,57.8204
821851.1,236.3023,316.5381,49.75631,57.71385
821864.9,235.7713,314.9603,49.69273,57.58443
821882.4,235.2688,313.3574,49.63242,57.45199
821897.6,234.5694,311.5375,49.54822,57.30046
821915.4,233.8703,310.0026,49.46377,57.17168
821931.3,233.2121,308.5355,49.38399,57.04774
821948.6,232.8351,306.9432,49.33818,56.91228
821965.6,232.9256,305.287,49.34919,56.77034
821981.4,233.6755,303.5781,49.44018,56.62275
821998.1,234.5198,301.9598,49.54224,56.48191
822014.9,235.2773,300.3127,49.63345,56.33747
822032.3,236.0866,298.5066,49.7305,56.17783
822049.8,236.626,296.7475,49.79498,56.02107
822065,236.7585,294.9385,49.8108,55.85851
822082.2,236.7327,293.4984,49.80771,55.72812
822098.4,236.7761,292.0347,49.81289,55.5947
822114.8,236.6232,290.0146,49.79465,55.40906
822132.4,236.101,288.1076,49.73222,55.23219
822148.1,235.28,286.1054,49.63376,55.0448
822166.4,234.6997,284.2287,49.56393,54.86753
822187.4,234.1077,282.3818,49.49249,54.69155
822202.8,233.2861,280.3331,49.39298,54.49454
822217.5,232.6549,278.6474,49.31626,54.33099
822232.3,231.9594,277.0597,49.23143,54.17576
822249.4,231.4576,275.5767,49.17006,54.0297
822266,230.9905,273.5404,49.11279,53.82747
822286,230.6612,272.1068,49.07233,53.68391
822298.8,230.1774,270.4728,49.01279,53.51908
822315.3,229.7258,269.1092,48.95707,53.38054
822332.1,229.5231,267.7215,48.93201,53.23861
822349.6,229.3563,266.2054,48.91139,53.08248
822365.4,228.8891,264.178,48.85351,52.8719
822382.8,228.4465,262.6107,48.79855,52.7077
822399.6,228.1535,261.3731,48.7621,52.57716
822415.6,228.0062,259.8259,48.74376,52.41286
822434.5,227.6539,258.3004,48.69984,52.24965
822450.5,227.1075,256.7256,48.63156,52.07991
822466.8,226.5341,255.3169,48.5597,51.92698
822483.5,226.1869,254.0506,48.5161,51.78859
822499.9,225.9582,252.85,48.48733,51.65661
822515.8,225.6188,251.2096,48.44458,51.47502
822533.6,225.1812,249.6255,48.38936,51.29828
822552.6,224.732,248.432,48.33255,51.16423
822568.9,224.4668,247.2423,48.29895,51.02981
822586.9,224.2957,246.3451,48.27724,50.92792
822602.3,224.0397,244.7838,48.24475,50.74955
822619.3,223.6026,242.9928,48.18915,50.54324
822637.2,222.9393,241.4883,48.10456,50.36853
822654.9,222.6332,240.4056,48.06543,50.242
822670.9,222.4497,239.5542,48.04193,50.14202
822688.1,222.1458,238.4864,48.00299,50.01605
822704.8,221.7932,237.2567,47.95772,49.87016
822721.4,221.4595,236.0999,47.91482,49.7321
822735.8,221.2266,235.2266,47.88483,49.62735
822751.8,221.0908,234.3681,47.86733,49.52394
822769.9,220.9883,233.5146,47.85411,49.42069
822786.3,220.874,232.6117,47.83936,49.311
822803.5,220.7969,231.4995,47.8294,49.17519
822818.9,220.8063,230.6947,47.83062,49.07646
822835.6,221.0066,229.9588,47.85647,48.98583
822851.9,221.6768,229.1775,47.94277,48.88926
822868.4,222.614,228.1895,48.06297,48.76658
822886.5,224.4636,227.4771,48.29854,48.67776
822908.5,226.7005,226.9778,48.58057,48.61531
822922.6,229.7995,226.6698,48.96616,48.57672
822947.9,233.1227,225.6428,49.37313,48.44761
822958.9,234.7215,224.9474,49.56656,48.35981
822970,237.1285,224.1162,49.8549,48.25446
822986.3,239.8213,223.2304,50.17344,48.14172
823002.6,242.1799,222.4719,50.44901,48.04477
823021.6,244.2146,221.4801,50.68417,47.91747
823038.1,246.0497,220.3086,50.89428,47.76628
823054.4,247.7908,219.1974,51.09187,47.62206
823071.6,249.5396,218.296,51.28867,47.50449
823088.2,251.4292,217.5967,51.49942,47.41291
823104.4,253.2783,216.8506,51.70378,47.31484
823121,255.0349,215.9138,51.89623,47.1912
823136.9,256.5801,215.0283,52.06416,47.07379
823153.4,258.1729,214.1785,52.23596,46.96064
823170.7,259.9035,213.6337,52.42113,46.88783
823187.8,261.7536,213.1224,52.61738,46.81933
823204.1,264.1397,212.5757,52.8679,46.74589
823220.4,266.3105,211.948,53.09334,46.66133
823236,269.2433,211.3593,53.3942,46.58176
823261.1,271.9397,210.858,53.66711,46.51384
823275.1,273.8301,210.6366,53.85636,46.48379
823286.9,276.5611,209.9746,54.12677,46.39372
823304,279.1077,209.2082,54.37578,46.28907
823322.1,281.6021,208.5691,54.61679,46.20151
823337.1,284.3674,208.0474,54.88068,46.12983
823353.4,287.1967,207.5586,55.14716,46.06249
823371.6,289.8072,207.1803,55.3899,46.01026
823388.2,292.5896,206.5945,55.64539,45.92918
823405.7,294.9076,206.0395,55.85572,45.85217
823421.2,297.1299,205.483,56.05526,45.77471
823437.5,299.0214,204.9258,56.22347,45.69695
823453.2,301.2677,204.4786,56.42135,45.63439
823470.9,303.2646,203.9683,56.59555,45.56282
823487.6,304.9294,203.2741,56.73955,45.46516
823504.1,306.4713,202.6443,56.87194,45.37628
823520.8,308.2448,202.232,57.02308,45.31794
823537.3,309.8056,201.8668,57.15509,45.26616
823553.2,311.5101,201.4666,57.29817,45.2093
823571.1,312.976,201.1075,57.42034,45.1582
823586.9,314.5261,200.7865,57.54865,45.11244
823603.4,316.0871,200.561,57.67695,45.08025
823621.5,317.8252,200.5464,57.81875,45.07816
823640.6,319.5222,200.5652,57.95612,45.08085
823656.8,321.3792,200.6629,58.10526,45.0948
823673.3,323.1041,200.5497,58.24268,45.07862
823691.9,324.708,200.2973,58.36951,45.04255
823710.4,326.001,199.9646,58.47109,44.99492
823729.9,327.595,199.4749,58.59552,44.92468
823744.1,328.5727,198.66,58.6714,44.80742
823757.6,329.4236,197.1522,58.73718,44.58916
823773.1,329.4449,195.0001,58.73882,44.2748
823791.8,329.2853,193.7016,58.72651,44.08346
823809.8,329.2972,192.9548,58.72743,43.97287
823827.1,329.2395,192.3161,58.72297,43.87794
823842.3,329.0195,191.5486,58.70597,43.76348
823857.9,328.7242,190.6009,58.68314,43.62155
823873.5,328.6336,189.5188,58.67612,43.45865
823891.9,328.4741,188.2996,58.66377,43.27406
823910.1,328.2215,187.1572,58.64419,43.10008
823925,327.9771,185.8276,58.62522,42.89633
823940.3,327.8203,183.9236,58.61304,42.60221
823960.7,327.5219,181.744,58.58984,42.26205
823977.8,327.043,179.5109,58.55253,41.9097
823992.1,326.5736,177.1605,58.51589,41.5346
824015.6,326.4781,174.8918,58.50843,41.16837
824028.5,326.3475,173.2339,58.49821,40.89811
824042.1,326.1354,171.3612,58.48162,40.59017
824059.4,325.9618,169.6046,58.46802,40.2987
824075.4,325.9444,167.6846,58.46666,39.97724
824092.1,325.9611,165.5752,58.46796,39.62054
824122.5,325.8881,163.259,58.46224,39.22459
824139.1,325.9451,161.8144,58.46671,38.97535
824152.9,326.1535,160.7329,58.48303,38.78761
824162.9,326.3943,160.0986,58.50188,38.67703
824174,326.571,159.0248,58.51569,38.48905
824191.4,326.7554,158.2355,58.53009,38.35026
824207.1,326.9806,157.4175,58.54766,38.20584
824225.1,327.3723,156.7353,58.57819,38.08496
824242.3,327.8855,156.6761,58.6181,38.07445
824261.9,328.3137,156.5554,58.65133,38.05302
824276.1,328.8699,156.652,58.6944,38.07018
824292.7,329.7235,157.1889,58.76031,38.16538
824310.9,330.6165,157.7077,58.82898,38.25713
824327.1,331.6614,158.2805,58.90899,38.35818
824343.3,332.3094,158.6171,58.95842,38.41742
824359.4,332.7289,158.9023,58.99035,38.46755
824375.6,333.1543,159.3346,59.02266,38.54339
824392,333.7087,159.8642,59.06469,38.63607
824410.3,334.1846,160.0875,59.10068,38.67509
824425.8,334.3683,160.3539,59.11454,38.72157
824440.5,334.6559,160.733,59.13625,38.78763
824457,335.0862,161.2702,59.16865,38.881
824474.1,335.7361,162.0813,59.21749,39.02153
824491.4,336.2807,162.6836,59.2583,39.12552
824508.4,336.7583,163.1069,59.29402,39.19843
824527.8,337.3846,163.7661,59.34074,39.31166
824543.8,338.1569,164.6454,59.39817,39.46214
824557.1,339.2328,165.9682,59.47786,39.68727
824573.9,340.4057,167.384,59.56431,39.92663
824591.9,341.9153,169.1369,59.67492,40.22068
824608.9,343.1244,170.8996,59.76299,40.51382
824627.8,344.451,173.1143,59.85909,40.87854
824644.3,346.252,176.3948,59.98867,41.41146
824658.8,347.9322,179.6839,60.10865,41.93714
824674.1,349.492,183.3734,60.21926,42.51669
824692.6,351.0237,187.0384,60.32715,43.08192
824708.4,352.4904,189.5939,60.4298,43.46999
824725.6,353.7765,192.0579,60.51928,43.83949
824742.1,354.7546,194.1862,60.587,44.15501
824759.2,356.005,196.4585,60.67316,44.4882
824774.8,357.2052,199.2411,60.75544,44.89108
824791.9,358.4249,201.9471,60.83862,45.27755
824808.7,359.9593,204.8438,60.94264,45.68548
824827.1,361.2538,207.3412,61.02988,46.03248
824843.3,362.3432,209.514,61.10293,46.33089
824858.3,363.6696,212.2301,61.19142,46.69936
824875.1,364.9816,215.2513,61.27846,47.1034
824892.4,366.2595,218.3403,61.36277,47.51028
824911.6,367.5099,220.9461,61.44483,47.84866
824928.4,368.7707,223.3324,61.52715,48.15472
824944.7,369.82,225.6328,61.59532,48.44635
824959.9,370.828,228.2577,61.66053,48.77507
824974.5,371.9431,231.0039,61.73234,49.11444
824991.8,373.0623,233.9127,61.80408,49.46889
825011.1,374.1697,236.0258,61.87475,49.72322
825027.3,375.4391,237.7447,61.95534,49.92816
825042.8,376.8026,239.5898,62.04145,50.14621
825062.9,378.0048,241.4179,62.11696,50.36032
825078.3,379.3994,243.4363,62.20409,50.5945
825092.9,380.7993,245.5617,62.29105,50.83859
825109.9,382.0358,247.6809,62.36744,51.07945
825127.5,383.2823,249.9413,62.44406,51.33363
825142.8,384.5752,252.2965,62.52312,51.5955
825160.3,385.7944,254.7288,62.59729,51.86282
825176.8,386.8844,256.9025,62.66328,52.09905
825192.3,387.8785,259.2159,62.72322,52.34774
825210.9,388.5046,261.3187,62.76084,52.5714
825228.6,389.0673,263.3818,62.79457,52.78864
825246.1,389.282,265.2932,62.80743,52.98799
825273.8,389.2074,267.178,62.80296,53.18277
825286.8,388.9159,268.1942,62.7855,53.28707
825303.9,388.7429,269.675,62.77514,53.43814
825314,388.438,270.517,62.75685,53.52356
825325.8,387.8827,271.6318,62.72347,53.63612
825345.2,387.5123,272.2382,62.70117,53.69711
825358.1,387.1494,273.0393,62.67928,53.7774
825377.7,386.8145,273.7507,62.65906,53.84845
825393,386.5065,274.4929,62.64044,53.92231
825410.9,386.2561,275.2639,62.62528,53.99876
825427.3,385.9712,276.0273,62.60801,54.0742
825444,385.7304,276.7381,62.5934,54.14417
825460.3,385.431,277.244,62.57522,54.19384
825477.8,385.1008,277.9825,62.55514,54.26613
825492.9,384.6695,278.7709,62.52887,54.34302
825510.3,383.9856,279.6461,62.48712,54.42804
825526.5,383.1996,280.5643,62.43899,54.51686
825543.6,382.3756,281.4383,62.38837,54.60106
825559.9,381.2968,282.272,62.32183,54.68103
825576.2,380.3033,283.0105,62.2603,54.75163
825592.9,379.1537,283.6317,62.18877,54.81081
825611,377.7641,284.2,62.10187,54.8648
825627,376.4264,284.8843,62.01774,54.92963
825642.9,374.8075,285.7511,61.9153,55.01145
825660.1,373.2324,286.7485,61.81496,55.10518
825679,371.5374,287.9383,61.70625,55.21642
825694.4,369.5183,289.5164,61.57575,55.36301
825710.8,367.5544,291.2271,61.44775,55.52069
825727.7,365.2555,293.2068,61.29657,55.70161
825744.6,363.2175,295.1721,61.16132,55.87957
825760.8,361.5575,297.369,61.05029,56.0766
825777.8,360.0568,299.6185,60.94923,56.27628
825794.3,358.1313,301.1223,60.81863,56.40861
825811.8,355.7816,301.8004,60.65781,56.46798
825831.9,353.5545,302.2356,60.50387,56.50598
825850.4,351.453,302.4286,60.35727,56.52281
825860.9,349.2377,302.4728,60.20127,56.52667
825877.6,346.7721,302.2094,60.0259,56.50369
825894.1,343.7923,302.3432,59.81144,56.51537
825911.3,340.5443,302.7112,59.57449,56.54744
825928,337.4018,303.2754,59.34202,56.59648
825950.9,333.8263,303.7491,59.07359,56.63757
825964.3,330.2381,304.1898,58.79992,56.67572
