Time Stamp(ms),Intersection,,Angle,
,x,y,x,y
1071164,313.3943,247.543,57.45505,51.06385
1071199,313.4785,248.1591,57.46204,51.13346
1071231,314.1931,250.2365,57.52116,51.36661
1071272,314.1792,250.6758,57.52001,51.41562
1071298,314.7226,250.7334,57.56485,51.42204
1071334,315.4066,250.7409,57.62113,51.42287
1071366,315.9347,250.0043,57.66446,51.34067
1071398,316.5459,249.664,57.71449,51.3026
1071434,316.7463,249.3117,57.73086,51.26311
1071469,316.2153,249.4361,57.68745,51.27707
1071500,315.4077,249.8312,57.62122,51.32131
1071531,314.2252,250.377,57.52381,51.3823
1071568,312.7905,250.9809,57.40492,51.44959
1071595,311.4122,251.6326,57.28998,51.52199
1071634,310.1054,251.9182,57.18033,51.55364
1071666,308.7983,251.9659,57.07,51.55892
1071695,307.9442,251.7952,56.99755,51.54002
1071732,307.4427,250.8857,56.95489,51.43899
1071763,307.7906,249.6957,56.9845,51.30615
1071795,309.5777,247.6192,57.13587,51.07248
1071835,312.2315,244.5979,57.35839,50.72822
1071861,315.4389,241.0682,57.62378,50.31951
1071894,320.2368,237.1798,58.01366,49.861
1071934,324.6923,231.9709,58.36827,49.23284
1071959,329.1029,227.7596,58.71242,48.71302
1071991,333.4846,222.3018,59.04771,48.02299
1072028,338.7336,217.7906,59.44093,47.43832
1072060,343.3934,212.9827,59.78252,46.80059
1072092,349.1646,208.935,60.1961,46.25169
1072126,355.7345,204.8763,60.65456,45.69003
1072159,362.4535,200.1959,61.11031,45.02805
1072192,369.9043,196.0249,61.60078,44.42492
1072226,377.4962,191.2095,62.08506,43.71278
1072259,384.0286,187.3084,62.48975,43.12316
1072295,390.8891,183.8026,62.90326,42.58342
1072324,397.6631,180.62,63.30043,42.08519
1072360,404.6201,177.3287,63.69723,41.5616
1072393,410.8268,174.7156,64.04211,41.13974
1072424,416.1668,171.3564,64.33215,40.58937
1072456,420.9547,168.5031,64.58711,40.11465
1072490,425.8513,164.4006,64.84302,39.42031
1072534,428.7366,160.5112,64.99156,38.74899
1072561,431.8904,157.5797,65.15207,38.23453
1072595,434.3633,154.8549,65.27657,37.74971
1072624,436.3611,153.0326,65.3763,37.42187
1072664,438.0503,151.9519,65.46005,37.2261
1072697,439.3289,150.5534,65.52308,36.97123
1072731,439.6388,149.8819,65.53831,36.84824
1072758,439.5706,149.6042,65.53497,36.79726
1072792,439.4615,149.0287,65.5296,36.69139
1072825,439.2528,148.8068,65.51934,36.6505
1072857,439.1667,149.0698,65.51511,36.69896
1072892,439.0942,149.3901,65.51154,36.75791
1072925,438.7038,150.3962,65.4923,36.94248
1072959,437.5749,151.8623,65.43654,37.20982
1072992,435.3621,154.61,65.32653,37.70583
1073024,430.7184,158.4042,65.09265,38.37996
1073059,425.5239,162.2717,64.82606,39.05445
1073090,420.634,166.2926,64.57018,39.74226
1073123,415.9085,171.2697,64.31826,40.57504
1073156,410.8108,176.6562,64.04123,41.45354
1073191,404.671,181.7801,63.7001,42.26772
1073223,399.5127,187.0642,63.407,43.08587
1073260,395.3631,192.1112,63.16679,43.84743
1073289,392.5396,196.899,63.00103,44.55236
1073325,391.2011,201.437,62.92179,45.2051
1073356,390.5551,205.9742,62.88339,45.84309
1073388,390.741,209.2564,62.89445,46.29567
1073428,391.2605,213.3158,62.92532,46.84525
1073458,391.9359,218.1306,62.96535,47.48285
1073497,392.9289,222.3592,63.024,48.03035
1073529,394.4148,226.2705,63.11133,48.52661
1073559,396.0216,230.1173,63.20518,49.00537
1073592,397.7078,233.1137,63.30301,49.37205
1073630,399.75,236.2392,63.42062,49.74877
1073665,400.0832,238.1038,63.43972,49.97075
1073693,400.4577,240.308,63.46115,50.23056
1073726,401.6722,243.5455,63.53044,50.6071
1073757,402.8314,246.3294,63.59626,50.92613
1073790,403.7515,248.708,63.64829,51.19529
1073824,404.8047,251.1768,63.70761,51.47137
1073859,405.862,253.8014,63.76692,51.76126
1073893,407.0303,256.591,63.83216,52.06535
1073925,408.1319,259.5366,63.89341,52.382
1073962,409.2642,262.5827,63.95608,52.70475
1073996,410.4217,264.9337,64.01985,52.95063
1074028,411.6546,267.5052,64.08747,53.2164
1074063,412.4631,270.4203,64.13163,53.51376
1074095,412.9683,273.1358,64.15916,53.78705
1074129,413.0667,275.8896,64.16451,54.0606
1074162,412.2129,279.5783,64.11798,54.42147
1074195,409.4587,284.3543,63.96682,54.87944
1074228,405.4707,287.4099,63.745,55.16709
1074258,401.3848,289.3339,63.51408,55.34611
1074292,397.2884,291.6718,63.27874,55.56148
1074328,392.7994,294.3913,63.01636,55.80907
1074361,387.664,296.8871,62.71031,56.03356
1074393,381.4573,299.2991,62.33175,56.24805
1074426,374.5752,301.7855,61.90054,56.46667
1074460,368.4134,303.9687,61.50386,56.65658
1074491,361.4723,306.5526,61.04456,56.8789
1074525,354.0179,310.045,60.53602,57.17524
1074560,347.3418,314.4187,60.06659,57.53979
1074591,341.3014,318.2032,59.63003,57.84944
1074627,335.4112,321.8641,59.19309,58.144
1074659,330.7123,323.3687,58.83633,58.26366
1074694,325.1257,324.4125,58.40239,58.34621
1074722,318.8047,325.4183,57.89817,58.42538
1074754,312.6076,326.4056,57.38971,58.50276
1074792,305.9343,326.7205,56.82594,58.52737
1074825,299.0859,327.3203,56.22919,58.57414
1074858,293.2474,326.9934,55.70531,58.54866
1074890,287.9386,324.9363,55.21645,58.38748
1074923,282.8699,323.0206,54.7382,58.23605
1074953,278.2474,321.7059,54.29199,58.13137
1074984,273.7184,320.2353,53.84522,58.01354
1075017,268.5277,317.6983,53.32119,57.80843
1075051,262.9078,316.0364,52.73892,57.67279
1075086,257.7829,314.1269,52.19402,57.51569
1075118,252.6699,311.867,51.63675,57.32799
1075151,248.3931,309.9348,51.15984,57.16597
1075184,244.3102,308.2855,50.69516,57.02654
1075217,240.9355,306.9876,50.30402,56.91608
1075255,238.1868,305.778,49.98059,56.81253
1075283,235.2339,304.5286,49.62822,56.70498
1075317,232.4271,303.6695,49.2885,56.63066
1075350,229.8797,303.0834,48.97607,56.5798
1075389,227.3815,302.1231,48.66582,56.49617
1075419,225.6736,301.4502,48.45148,56.43734
1075452,223.9138,299.8997,48.22874,56.30109
1075487,223.311,298.1844,48.15199,56.14922
1075519,223.198,295.8606,48.13758,55.94154
1075551,222.3528,293.5157,48.02952,55.72969
1075585,221.6527,291.6935,47.93967,55.56347
1075617,220.5676,289.8483,47.79978,55.3937
1075651,218.4274,287.6304,47.52166,55.18769
1075684,216.0298,285.6518,47.20654,55.00209
1075717,213.6148,283.8931,46.8853,54.83566
1075752,211.3194,282.289,46.57636,54.68267
1075786,209.3459,280.9846,46.30791,54.55739
1075818,208.327,279.8092,46.16827,54.44385
1075850,209.7672,277.7261,46.36544,54.24105
1075884,212.0985,275.2869,46.68163,54.00104
1075919,213.8335,272.9262,46.91455,53.76609
1075950,215.1642,270.7977,47.09185,53.55195
1075982,215.2994,269.2709,47.10979,53.39701
1076019,214.0727,268.2253,46.94651,53.29025
1076051,211.1599,267.6234,46.55476,53.22855
1076082,206.9375,267.3019,45.9767,53.19551
1076116,202.1135,267.1788,45.30114,53.18286
1076151,198.6444,266.6926,44.80516,53.13277
1076182,196.846,264.9159,44.54464,52.94878
1076220,197.0424,262.7722,44.5732,52.72467
1076250,198.9926,260.1427,44.85534,52.4466
1076282,200.6039,257.784,45.08638,52.19414
1076319,201.4707,256.308,45.20988,52.03468
1076348,201.7549,255.5195,45.25028,51.94904
1076383,200.5259,254.6379,45.07524,51.85288
1076416,198.1552,254.4912,44.73453,51.83684
1076446,194.7014,255.1431,44.23088,51.90803
1076481,190.1074,256.701,43.54737,52.07725
1076515,186.0796,258.9492,42.93505,52.31922
1076546,183.0051,261.5616,42.4593,52.59709
1076582,180.6237,263.7317,42.08578,52.82526
1076613,177.7807,265.414,41.63401,53.00052
1076646,175.1624,266.0421,41.21227,53.06559
1076680,172.5724,266.5556,40.78966,53.11864
1076719,169.5795,268.1564,40.29452,53.2832
1076753,166.6805,270.0782,39.80791,53.47908
1076784,163.2773,271.7129,39.22775,53.64429
1076817,160.0177,273.5827,38.66291,53.83169
1076849,156.1276,275.2993,37.97695,54.00227
1076884,151.9131,276.832,37.21906,54.1534
1076913,146.9081,278.7337,36.29878,54.3394
1076944,141.6065,280.8423,35.29973,54.54368
1076980,136.3276,282.4194,34.27983,54.69514
1077015,132.0392,283.64,33.43263,54.8116
1077046,128.2582,284.3982,32.67168,54.8836
1077075,125.4283,284.5156,32.09354,54.89473
1077109,122.991,284.2705,31.58964,54.8715
1077142,121.1086,283.243,31.19671,54.7738
1077180,119.4165,282.4016,30.8407,54.69344
1077214,117.9665,281.7342,30.53348,54.62948
1077243,116.4061,280.4495,30.20071,54.50578
1077277,114.4572,278.672,29.7819,54.33339
1077309,112.174,275.7813,29.28675,54.04991
1077346,109.6245,272.4451,28.72815,53.71788
1077378,107.8017,269.9376,28.32504,53.46481
1077413,105.8143,267.3298,27.88203,53.19838
1077447,104.0588,265.1089,27.48768,52.96884
1077477,102.8967,263.0891,27.22508,52.75794
1077510,101.8808,260.9533,26.99448,52.5327
1077541,100.6242,258.9567,26.70792,52.32002
1077571,99.63253,257.3867,26.48077,52.15133
1077605,98.42939,255.4756,26.20396,51.94426
1077637,97.89293,253.9677,26.08011,51.7795
1077675,97.90838,252.1556,26.08368,51.57992
1077708,97.99263,250.1031,26.10315,51.35172
1077741,98.09432,248.0923,26.12664,51.12593
1077774,98.31097,246.5303,26.17665,50.94899
1077808,98.60567,245.129,26.24461,50.78909
1077836,98.56797,243.4641,26.23591,50.59771
1077872,98.7738,242.1798,26.28334,50.449
1077903,99.13313,240.5812,26.36604,50.26257
1077938,99.00433,238.3919,26.3364,50.00487
1077965,98.88307,235.3107,26.3085,49.63745
1077999,99.06555,230.5896,26.35049,49.06353
1078031,99.75705,225.6678,26.50934,48.45076
1078066,100.9528,219.7594,26.78301,47.69511
1078099,102.7122,214.6069,27.18326,47.01774
1078132,105.2556,209.2395,27.75685,46.29337
1078164,108.3021,204.182,28.43602,45.5928
1078196,111.7772,198.1122,29.20022,44.72831
1078229,115.7689,191.8923,30.06418,43.8148
1078267,120.6987,184.9214,31.1107,42.75669
1078297,127.2105,178.6115,32.45851,41.76669
1078331,135.1532,173.2485,34.04949,40.9005
1078362,144.4485,168.2759,35.83841,40.07657
1078396,158.8498,163.2674,38.45832,39.22603
1078440,170.082,160.7429,40.37817,38.78935
1078492,187.4284,157.5169,43.14146,38.22342
1078510,196.5695,157.188,44.50438,38.16523
1078534,208.1826,156.3696,46.14843,38.02001
1078568,219.3814,155.2084,47.646,37.81297
1078598,229.3267,154.5504,48.90773,37.69513
1078633,236.993,153.6392,49.83876,37.53132
1078662,245.2975,152.595,50.80839,37.34274
1078699,253.1018,151.2629,51.68435,37.10075
1078730,259.4331,149.9335,52.37096,36.85771
1078761,265.524,149.0909,53.01193,36.70285
1078796,270.1702,147.7597,53.48841,36.45693
1078830,274.5714,146.809,53.9301,36.28035
1078861,279.7545,145.8326,54.43855,36.09816
1078894,284.9804,145.2221,54.93872,35.9838
1078932,291.2664,145.7435,55.52431,36.08148
1078966,298.1339,147.3389,56.14473,36.37887
1078996,307.4392,150.7299,56.95458,37.0035
1079026,316.5081,154.4751,57.7114,37.68161
1079066,325.812,158.5067,58.45628,38.39801
1079097,334.1601,162.0464,59.09883,39.01551
1079128,342.7553,165.6393,59.73616,39.63143
1079165,350.904,169.31,60.31874,40.24958
1079194,356.2343,172.6781,60.68892,40.80702
1079231,360.8252,176.3593,61.00105,41.40574
1079265,364.287,180.1251,61.23243,42.00701
1079295,366.861,183.8683,61.4023,42.59361
1079328,369.3587,187.7466,61.56538,43.18996
1079364,370.5372,190.6376,61.64174,43.62706
1079394,370.7216,193.172,61.65366,44.00508
1079423,369.8688,195.5718,61.59848,44.35864
1079459,368.4456,197.5769,61.50596,44.65081
1079493,366.6897,199.6241,61.39105,44.9461
1079524,365.0982,201.6667,61.28617,45.23775
1079558,363.3354,203.5936,61.16917,45.51014
1079595,361.3458,205.4221,61.03606,45.76623
1079623,359.004,207.2254,60.87796,46.01649
1079656,356.669,208.508,60.71873,46.19312
1079689,353.8735,209.7267,60.52601,46.35992
1079722,351.1353,210.948,60.33498,46.52605
1079753,347.6484,212.5404,60.08845,46.74114
1079786,343.1778,214.202,59.76686,46.96376
1079819,338.549,215.8637,59.42725,47.18457
1079856,334.1737,218.0122,59.09986,47.46736
1079884,328.5164,220.7579,58.66705,47.82437
1079923,321.7096,222.9709,58.13167,48.1086
1079957,314.2343,224.5469,57.52456,48.3091
1079988,305.4648,226.7274,56.78563,48.58395
1080020,297.441,229.3222,56.08303,48.90716
1080054,289.6946,232.3061,55.37949,49.27375
1080086,281.8186,235.2433,54.63758,49.62935
1080120,274.0514,238.0725,53.8784,49.96705
1080154,266.3284,240.6646,53.09519,50.27233
1080188,259.1169,243.3921,52.33716,50.58939
1080225,252.9525,245.8983,51.6679,50.87701
1080257,247.3739,248.0903,51.04472,51.12569
1080291,241.5329,250.3383,50.37373,51.37798
1080326,236.8423,252.0524,49.82079,51.5685
1080356,232.6258,253.6805,49.3127,51.74799
1080391,228.6085,255.2738,48.81868,51.92228
1080425,224.6423,257.2281,48.3212,52.13422
1080457,220.6897,259.2071,47.81556,52.3468
1080492,216.8331,261.5072,47.31254,52.59134
1080526,213.2736,263.5691,46.8396,52.80825
1080558,209.3213,266.0898,46.30454,53.07053
1080588,206.1753,267.8831,45.87103,53.2552
1080621,202.8896,269.3111,45.41092,53.40111
1080656,200.0135,270.2125,45.00194,53.4927
1080692,197.0233,270.3994,44.57043,53.51164
1080721,194.934,270.204,44.26508,53.49184
1080754,193.0042,270.0449,43.9802,53.4757
1080787,192.0725,269.8455,43.84167,53.45545
1080820,191.1355,270.1335,43.7017,53.48469
1080852,190.2462,271.3186,43.56824,53.60456
1080882,189.783,273.5441,43.4985,53.82784
1080917,189.9233,275.8563,43.51965,54.05732
1080953,190.9452,278.6735,43.67319,54.33354
1080988,191.7205,280.5495,43.78917,54.51543
1081016,192.6588,282.6477,43.92892,54.71698
1081051,193.1077,284.9215,43.99554,54.93316
1081090,192.0802,286.6666,43.84281,55.0975
1081120,189.2686,289.3477,43.42087,55.34739
1081151,185.4797,293.6544,42.8428,55.74229
1081184,182.6981,299.3695,42.41141,56.25428
