Time Stamp(ms),Intersection,,Angle,
,x,y,x,y
2435602,268.6175,252.8938,53.33035,51.66144
2435622,261.9241,253.3322,52.63538,51.70971
2435645,254.7759,252.8188,51.86796,51.65317
2435674,249.6269,251.9846,51.29844,51.561
2435692,245.3436,251.3862,50.81366,51.49465
2435714,240.2937,250.9102,50.22889,51.44173
2435742,236.1065,250.2354,49.73289,51.36649
2435763,232.8732,249.1255,49.34282,51.24222
2435789,231.0371,248.2582,49.11851,51.14463
2435809,230.337,247.6735,49.03244,51.07862
2435829,229.2607,246.2645,48.89956,50.91874
2435856,228.3375,244.5548,48.785,50.72326
2435878,226.8988,242.8,48.60542,50.52093
2435903,225.3528,241.9007,48.41103,50.41654
2435926,223.5099,241.0893,48.17735,50.32198
2435951,219.9779,239.3064,47.72345,50.11285
2435987,214.912,237.6845,47.05834,49.92102
2436016,210.9837,236.7316,46.53089,49.80758
2436037,207.1253,236.1351,46.00266,49.73632
2436061,202.8892,235.6358,45.41087,49.67649
2436075,200.729,235.3384,45.10423,49.64078
2436088,197.3828,234.7275,44.62265,49.56729
2436119,195.3194,235.2324,44.32164,49.62804
2436140,193.8,235.6028,44.09801,49.67252
2436164,192.763,234.8601,43.94439,49.58325
2436186,192.295,233.0141,43.87481,49.35994
2436210,191.2572,231.4205,43.71991,49.16552
2436234,190.0109,230.2045,43.53284,49.01612
2436259,189.0784,229.4304,43.3921,48.92055
2436282,187.8775,229.0429,43.20989,48.87258
2436307,185.9259,228.6694,42.91143,48.82624
2436327,184.3592,228.0686,42.66974,48.75153
2436349,183.0436,227.537,42.46531,48.68524
2436372,181.8712,227.243,42.282,48.6485
2436397,180.5634,227.0929,42.07626,48.62973
2436424,179.4429,227.1322,41.89891,48.63464
2436446,178.6539,227.0812,41.77345,48.62826
2436465,177.7551,226.7552,41.62992,48.58743
2436500,177.4122,227.5771,41.57498,48.69025
2436520,177.6937,228.0918,41.62009,48.75443
2436537,178.8786,228.9595,41.80923,48.86223
2436565,179.9925,229.4724,41.98603,48.92575
2436584,181.958,230.5739,42.29562,49.0616
2436607,183.7771,231.3553,42.57945,49.15753
2436631,185.7705,232.5828,42.88754,49.30748
2436655,187.5211,233.8056,43.15561,49.45594
2436676,189.4803,234.9627,43.45284,49.59561
2436703,191.1651,235.5147,43.70612,49.66196
2436724,192.1328,235.2602,43.85065,49.63139
2436746,192.4289,235.1913,43.89473,49.6231
2436771,192.5591,235.7138,43.9141,49.68584
2436797,192.5392,236.219,43.91114,49.74635
2436817,191.9875,236.2667,43.829,49.75206
2436838,191.0857,236.5121,43.69424,49.78138
2436861,189.827,237.5997,43.50513,49.91094
2436886,188.7978,238.4256,43.34963,50.00887
2436909,188.09,239.1841,43.24221,50.09844
2436933,187.4242,239.9207,43.14083,50.18512
2436960,187.0638,240.3768,43.08581,50.23862
2436981,186.7018,240.9938,43.03044,50.31083
2437008,186.7038,241.4681,43.03075,50.36618
2437028,186.8508,241.8387,43.05324,50.40933
2437059,187.1335,242.2243,43.09646,50.45416
2437074,187.4669,242.7161,43.14735,50.5112
2437098,188.0197,243.5909,43.23153,50.61234
2437123,188.6066,244.3223,43.32065,50.69656
2437149,189.0118,244.7953,43.38203,50.75087
2437171,189.2875,245.4022,43.42373,50.82035
2437196,189.5228,246.0283,43.45925,50.89184
2437213,189.9996,246.5838,43.53114,50.95507
2437243,190.4021,246.8661,43.59169,50.98714
2437260,190.7312,246.975,43.64111,50.9995
2437285,191.0016,247.2093,43.68164,51.02607
2437306,191.3334,247.6086,43.73131,51.07127
2437330,191.748,248.009,43.79327,51.11652
2437355,192.2825,248.2032,43.87294,51.13843
2437380,192.6137,248.5143,43.92221,51.17348
2437405,192.937,248.6666,43.97023,51.19064
2437429,193.1743,248.8874,44.00541,51.21547
2437450,193.4843,248.9467,44.05132,51.22213
2437475,193.6527,248.9214,44.07623,51.2193
2437496,193.7323,248.8916,44.08801,51.21593
2437520,193.6936,249.0483,44.08228,51.23355
2437545,193.8854,249.3046,44.11062,51.26232
2437572,194.3535,249.3674,44.17968,51.26936
2437593,194.7551,249.2696,44.23879,51.25839
2437616,195.2023,249.417,44.30447,51.27492
2437642,195.6898,249.7541,44.37591,51.31269
2437663,196.1124,249.8719,44.43769,51.32587
2437686,196.499,249.8853,44.49411,51.32737
2437710,196.8162,249.8078,44.5403,51.31869
2437734,197.1351,249.8766,44.58668,51.32639
2437758,197.4746,249.9507,44.63597,51.33467
2437779,197.7713,249.9077,44.67898,51.32987
2437802,197.3798,250.1792,44.62222,51.36022
2437826,197.7135,250.0407,44.67061,51.34475
2437854,198.2715,249.9499,44.75134,51.33459
2437877,199.1381,249.8274,44.87627,51.32089
2437898,200.5964,249.5697,45.0853,51.29204
2437919,202.4715,249.1653,45.35183,51.24668
2437949,204.4894,248.5597,45.6359,51.1786
2437969,206.818,247.7461,45.96016,51.08682
2437991,210.2825,246.6028,46.43564,50.95723
2438013,214.2087,246.0854,46.96466,50.89834
2438036,219.6014,245.8469,47.67459,50.87115
2438069,227.171,246.7373,48.6395,50.97251
2438093,234.8436,247.8351,49.58127,51.09687
2438113,243.2415,249.8457,50.57199,51.32294
2438130,251.5642,252.0317,51.5144,51.56621
2438154,261.4478,254.9619,52.58506,51.88826
2438190,271.1632,258.337,53.58888,52.25359
2438206,278.3186,261.4156,54.29895,52.58165
2438224,286.9948,266.2404,55.12825,53.08609
2438247,294.3387,270.4295,55.80431,53.51469
2438273,301.8995,275.2583,56.47664,53.99821
2438297,308.1949,280.2594,57.01885,54.48742
2438321,315.4565,286.278,57.62523,55.06102
2438346,320.5887,289.1216,58.04193,55.32644
2438366,325.1004,290.8791,58.4004,55.48872
2438390,329.5939,292.5269,58.75032,55.63966
2438417,333.3189,294.2769,59.03515,55.79871
2438441,336.1524,295.278,59.2487,55.88912
2438462,338.5467,295.9678,59.42709,55.95117
2438484,340.4648,296.7704,59.56865,56.02311
2438509,342.5764,298.1869,59.72313,56.14944
2438536,344.451,299.5097,59.85909,56.26666
2438556,346.3285,300.4431,59.99415,56.34895
2438577,347.7055,300.6198,60.09251,56.36448
2438610,349.4764,299.9753,60.21815,56.30775
2438630,350.9558,299.6368,60.32238,56.27789
2438652,352.6097,299.2137,60.43812,56.24049
2438676,354.5061,298.4568,60.56982,56.17342
2438701,355.9689,297.7843,60.67068,56.11362
2438721,357.825,296.5469,60.79776,56.00311
2438747,359.3944,295.4153,60.90443,55.90149
2438769,361.0955,294.251,61.01924,55.79638
2438794,363.0137,293.2303,61.14772,55.70375
2438814,364.8049,292.3466,61.26676,55.62321
2438838,366.9411,291.007,61.40756,55.50048
2438861,368.8622,289.6781,61.5331,55.37797
2438882,370.8631,288.4147,61.66279,55.26078
2438907,373.4583,286.9019,61.82939,55.11955
2438929,376.1281,285.3985,61.99891,54.97821
2438954,379.4239,283.4258,62.20561,54.79121
2438977,382.5992,281.8381,62.40212,54.63945
2439002,385.8543,279.4567,62.60092,54.40968
2439026,388.7033,276.8538,62.77276,54.15554
2439047,391.2728,274.1241,62.92605,53.88564
2439073,394.2224,270.7014,63.10005,53.54221
2439095,396.8393,267.3017,63.2527,53.1955
2439120,399.2353,264.3205,63.39106,52.88676
2439143,401.263,261.4217,63.50713,52.58229
2439164,402.7782,258.5452,63.59325,52.27593
2439189,404.2752,256.2484,63.67782,52.02822
2439213,405.6057,254.539,63.75257,51.84207
2439236,406.8659,252.6774,63.823,51.63758
2439260,408.0549,251.1201,63.88913,51.46507
2439283,409.1295,250.3977,63.94864,51.38461
2439317,410.3388,249.4328,64.0153,51.2767
2439333,411.2348,248.7268,64.06448,51.1974
2439357,412.5336,247.9085,64.13548,51.10518
2439379,413.5944,247.2389,64.19319,51.02942
2439401,414.8652,246.569,64.26201,50.95338
2439427,416.2233,245.5965,64.33519,50.84257
2439449,417.2922,244.4143,64.39251,50.70713
2439475,418.1916,243.0522,64.44056,50.55011
2439495,418.6533,242.3201,64.46516,50.46529
2439521,418.8174,242.4035,64.47389,50.47496
2439544,418.8174,241.7091,64.47388,50.39425
2439565,418.944,240.3714,64.48062,50.23799
2439590,419.1727,239.0074,64.49277,50.0776
2439613,419.3784,238.4703,64.5037,50.01415
2439638,419.602,238.0841,64.51556,49.96842
2439660,419.7332,238.1058,64.52252,49.97099
2439682,419.7892,238.3558,64.52549,50.0006
2439707,419.7373,238.7858,64.52274,50.05145
2439729,419.6068,238.7963,64.51582,50.05268
2439755,419.335,238.5124,64.5014,50.01913
2439779,419.0471,238.3537,64.4861,50.00035
2439802,418.7641,238.586,64.47105,50.02783
2439826,418.5259,238.3793,64.45837,50.00338
2439848,418.3152,237.8266,64.44714,49.93789
2439870,418.1654,237.4273,64.43916,49.89045
2439898,417.9182,237.6668,64.42596,49.91891
2439920,417.6989,237.737,64.41425,49.92725
2439949,417.5699,237.5699,64.40736,49.90739
2439967,417.4472,237.8567,64.4008,49.94146
2439990,417.2702,238.4983,64.39133,50.01746
2440015,416.9698,239.2678,64.37524,50.10831
2440040,416.5769,240.2626,64.35418,50.22523
2440064,416.0848,241.1744,64.32774,50.33192
2440089,415.5448,242.1741,64.29868,50.44833
2440110,414.8325,243.7659,64.26025,50.63251
2440130,414.0555,245.8736,64.2182,50.87419
2440159,413.0253,249.0693,64.16225,51.23591
2440179,411.7815,252.9326,64.09441,51.66571
2440201,410.4645,257.1183,64.02221,52.12237
2440228,409.0309,261.0345,63.94319,52.5413
2440254,407.6753,264.2985,63.86805,52.88447
2440276,405.7629,268.6984,63.76137,53.33862
2440297,404.1893,272.1514,63.67298,53.68839
2440318,402.7027,275.003,63.58897,53.97292
2440342,401.1546,276.6732,63.50095,54.13779
2440365,399.7907,277.6094,63.42295,54.22964
2440389,398.3948,279.2893,63.34268,54.39342
2440416,397.3271,281.2791,63.28098,54.58574
2440440,396.595,282.5739,63.23852,54.70992
2440464,395.8219,283.5172,63.19354,54.79992
2440487,395.2602,284.2335,63.16078,54.86799
2440507,394.6303,286.0531,63.12395,55.03987
2440534,394.1597,287.9877,63.09637,55.22102
2440557,393.6618,290.4269,63.06714,55.44709
2440579,393.1118,292.6546,63.03478,55.65132
2440602,392.5627,294.7285,63.0024,55.83955
2440626,391.919,297.7454,62.96434,56.11016
2440649,391.4726,299.8049,62.9379,56.29273
2440671,390.8785,301.0667,62.90263,56.40372
2440698,390.3018,301.952,62.86831,56.48122
2440721,389.8403,301.5453,62.84079,56.44567
2440744,389.4155,300.4525,62.81541,56.34977
2440769,389.1549,299.2153,62.79982,56.24064
2440789,388.9282,297.8874,62.78624,56.1228
2440815,388.8539,297.1664,62.78179,56.05851
2440836,388.8869,296.7566,62.78377,56.02188
2440862,388.9529,296.3316,62.78772,55.98381
2440883,389.015,296.0968,62.79145,55.96276
2440907,389.1835,295.7137,62.80153,55.92834
2440931,389.4264,294.9937,62.81606,55.86349
2440958,389.6371,294.3485,62.82866,55.8052
2440979,389.8754,292.7991,62.84288,55.6645
2441001,390.1708,290.4275,62.8605,55.44714
2441025,390.5649,287.3886,62.88398,55.1651
2441048,391.0763,283.3037,62.91438,54.77958
2441070,391.6042,277.8611,62.9457,54.25426
2441098,392.4242,270.0622,62.99422,53.47746
2441119,393.2452,264.0421,63.04264,52.85772
2441146,394.3016,257.5974,63.1047,52.17404
2441166,395.0978,253.0397,63.15129,51.67752
2441187,395.9832,248.0449,63.20294,51.12057
2441212,396.7923,242.8454,63.24998,50.52618
2441235,397.6582,238.6499,63.30014,50.03539
2441259,398.5558,234.6213,63.35196,49.55449
2441284,399.5182,230.7595,63.40732,49.08442
2441308,400.4692,227.3803,63.46181,48.66567
2441330,401.2821,225.1688,63.50822,48.38779
2441353,402.1266,222.8332,63.55628,48.091
2441376,403.0515,219.9681,63.60873,47.72217
2441399,403.7514,218.2557,63.64828,47.49922
2441423,404.5849,216.9131,63.69526,47.32306
2441449,405.2861,215.6218,63.73465,47.15253
2441469,405.7882,214.1741,63.76279,46.96005
2441495,406.2442,212.6279,63.7883,46.75291
2441518,406.6096,211.1963,63.8087,46.5597
2441543,406.9518,209.7093,63.82779,46.35754
2441567,407.0979,208.5029,63.83593,46.19242
2441587,407.0815,207.1225,63.83501,46.00227
2441615,407.0896,205.7434,63.83546,45.81098
2441636,406.8708,204.4372,63.82328,45.62859
2441662,406.6935,203.1499,63.81339,45.44765
2441683,406.5548,201.9439,63.80564,45.2771
2441705,406.2628,200.1154,63.78934,45.01652
2441730,405.9436,197.8775,63.77148,44.69435
2441753,405.3272,195.0691,63.73695,44.28492
2441777,404.5103,192.2097,63.69106,43.86211
2441802,403.8243,189.9503,63.6524,43.52371
2441824,403.1911,188.0534,63.61663,43.23665
2441848,402.6353,186.5686,63.58515,43.01004
2441871,402.0932,185.0475,63.55438,42.77615
2441897,401.5728,183.2496,63.52478,42.49741
2441917,401.1271,181.583,63.49938,42.23677
2441942,400.6482,180.1864,63.47204,42.0167
2441965,400.2735,179.4171,63.45061,41.89482
2441986,399.9608,179.0586,63.4327,41.83786
2442012,399.7025,178.4214,63.41789,41.73638
2442036,399.688,177.6666,63.41706,41.61574
2442060,399.582,176.9254,63.41098,41.49685
2442082,399.5639,176.2075,63.40994,41.38126
2442104,399.7486,175.5208,63.42054,41.27031
2442130,400.1121,174.7941,63.44137,41.1525
2442151,400.6494,174.4905,63.47211,41.10315
2442175,401.3921,174.4786,63.51449,41.10122
2442199,402.2458,174.1042,63.56305,41.04025
2442221,403.0008,173.7509,63.60585,40.98262
2442246,404.1646,173.8,63.67159,40.99064
2442270,405.3448,173.6754,63.73794,40.97029
2442294,406.3868,173.482,63.79626,40.9387
2442318,407.2809,173.3134,63.84612,40.91113
2442344,408.2603,172.9002,63.90053,40.84345
2442366,409.3204,172.4572,63.95918,40.77073
2442389,410.123,172.2612,64.00343,40.73852
2442410,411.001,172.1105,64.05167,40.71372
2442435,411.6558,172.3918,64.08753,40.75999
2442461,412.1373,172.007,64.11385,40.69669
2442482,412.3539,171.8015,64.12568,40.66283
2442505,412.6122,171.6469,64.13976,40.63734
2442525,412.8983,171.6448,64.15534,40.63698
2442552,413.3547,171.9486,64.18017,40.68706
2442575,413.8904,171.7571,64.20925,40.6555
2442602,414.2873,171.4686,64.23076,40.6079
2442623,414.6807,171.576,64.25204,40.62563
2442647,415.231,171.9966,64.28176,40.69497
2442667,415.6169,172.1844,64.30257,40.72588
2442693,415.8762,172.2584,64.31652,40.73805
2442719,416.2712,172.2201,64.33776,40.73175
2442741,416.5285,172.2394,64.35158,40.73494
2442762,416.5692,172.364,64.35377,40.75542
2442783,416.2483,172.167,64.33653,40.72303
2442807,415.6221,172.0352,64.30284,40.70132
2442830,414.862,171.9103,64.26184,40.68076
2442853,414.1993,171.7171,64.22599,40.64891
2442879,413.303,171.7522,64.17736,40.65469
2442900,412.3683,171.5422,64.12646,40.62006
2442922,411.3668,171.1369,64.07172,40.55309
2442947,410.4509,170.8505,64.02146,40.50569
2442970,409.5729,170.7239,63.97312,40.48471
2442995,408.7778,170.7204,63.92919,40.48414
2443019,408.106,170.4665,63.89197,40.44204
2443043,407.5594,170.111,63.86161,40.383
2443064,406.9058,169.6788,63.82523,40.31108
2443100,406.2321,169.1353,63.78762,40.22042
2443113,405.7869,168.6388,63.76272,40.13739
2443137,405.4582,168.2641,63.7443,40.07459
2443161,405.0741,167.9143,63.72275,40.01587
2443183,404.9059,167.5067,63.7133,39.9473
2443206,404.764,167.2801,63.70533,39.90913
2443228,404.6584,167.0275,63.69939,39.86652
2443254,404.5727,167.0253,63.69457,39.86615
2443282,404.5043,166.9993,63.69072,39.86177
2443307,404.3868,166.6007,63.6841,39.79441
2443335,404.2054,166.3517,63.67389,39.75229
2443360,403.8811,166.4367,63.65561,39.76667
2443373,403.6325,166.5739,63.64157,39.78988
2443397,403.4112,166.7062,63.62907,39.81226
2443420,403.0815,166.7383,63.61042,39.81769
2443441,402.8906,166.6136,63.59962,39.7966
2443468,402.7179,166.6798,63.58983,39.80779
2443487,402.6077,166.9038,63.58358,39.84564
2443508,402.5096,167.0056,63.57802,39.86282
2443535,402.4245,166.9479,63.57319,39.85309
2443559,402.3216,167.0648,63.56735,39.87282
2443579,402.2674,167.4748,63.56428,39.94193
2443603,402.126,168.1314,63.55624,40.05232
2443626,402.045,168.5248,63.55164,40.11829
2443651,401.9235,168.7418,63.54473,40.15463
2443673,401.7483,168.9827,63.53477,40.19492
2443696,401.5851,169.4535,63.52548,40.27352
2443720,401.4355,169.981,63.51696,40.36139
2443752,401.3383,170.2814,63.51143,40.41131
2443770,401.2005,170.6025,63.50357,40.4646
2443791,401.0827,171.0268,63.49685,40.53488
2443818,400.9378,171.5342,63.48858,40.61874
2443840,400.8673,171.9308,63.48455,40.68414
2443862,400.8243,172.3484,63.4821,40.75286
2443885,400.7833,172.5981,63.47976,40.79388
2443908,400.8402,172.7689,63.48301,40.82192
2443931,400.9883,172.936,63.49146,40.84932
2443953,401.1068,173.1951,63.49822,40.89176
2443983,401.1828,173.3952,63.50256,40.9245
2444003,401.2464,173.6052,63.50618,40.95884
2444024,401.2594,173.9261,63.50693,41.01122
2444048,401.231,174.3446,63.50531,41.07942
2444073,401.1626,174.6612,63.50141,41.13091
2444097,401.0851,174.8718,63.49699,41.16511
2444119,400.9793,174.8716,63.49095,41.16509
2444142,400.8047,175.0694,63.48098,41.19718
2444165,400.6374,175.2726,63.47142,41.23013
2444189,400.5305,175.4106,63.46531,41.25249
2444210,400.4344,175.6158,63.45982,41.28569
2444236,400.4907,175.4788,63.46304,41.26351
2444260,400.4274,175.6609,63.45942,41.29298
2444281,400.3907,175.8581,63.45732,41.32487
2444305,400.4194,176.056,63.45896,41.35682
2444328,400.4581,176.0455,63.46117,41.35512
2444353,400.4423,176.1715,63.46027,41.37545
2444382,400.3949,176.3467,63.45756,41.4037
2444404,400.3623,176.4333,63.45569,41.41766
2444423,400.2878,176.4953,63.45143,41.42764
2444448,400.1825,176.5719,63.4454,41.43998
2444470,400.1361,176.7467,63.44275,41.46811
2444494,400.1382,176.8775,63.44286,41.48915
2444518,400.0818,177.005,63.43964,41.50963
2444540,400.0389,177.2395,63.43718,41.54728
2444567,400.0404,177.492,63.43727,41.58778
2444587,399.9848,177.7547,63.43408,41.62985
2444610,399.8712,177.9961,63.42757,41.66846
2444634,399.7652,178.3225,63.42149,41.72059
2444659,399.6944,178.5731,63.41743,41.76057
2444683,399.6045,178.9512,63.41227,41.82077
2444706,399.5665,179.2243,63.41009,41.86421
2444731,399.4875,179.3385,63.40555,41.88234
2444755,399.3889,179.5038,63.39989,41.90858
2444778,399.3157,179.7491,63.39569,41.94747
2444802,399.1188,180.1745,63.38437,42.01482
2444825,398.9944,180.4722,63.37722,42.06186
2444848,398.821,180.6565,63.36724,42.09095
2444872,398.6074,180.783,63.35493,42.11089
2444893,398.4135,180.9431,63.34376,42.13614
2444918,398.1234,181.4271,63.32702,42.21228
2444943,397.8471,181.7975,63.31107,42.27044
2444965,397.4774,182.128,63.28968,42.32225
2444991,397.0496,182.4398,63.2649,42.37105
2445015,396.6614,182.8759,63.24237,42.43916
2445041,396.0831,183.36,63.20876,42.5146
2445060,395.4647,183.8544,63.17272,42.59145
2445080,394.6018,184.6323,63.12228,42.712
2445106,393.6108,185.511,63.06414,42.84761
2445130,392.2878,186.4843,62.98616,42.99714
2445157,390.6465,187.4079,62.88884,43.13834
2445177,388.1728,188.7455,62.74091,43.34171
2445200,384.9785,190.1384,62.54769,43.55203
2445224,380.944,191.3264,62.30001,43.73027
2445250,377.106,192.1568,62.06054,43.85422
2445273,372.524,192.8983,61.76962,43.96447
2445293,367.8788,193.9054,61.46896,44.11357
2445317,361.4617,195.4466,61.04385,44.34029
2445341,355.2766,196.8636,60.62302,44.54721
2445365,348.9238,198.3696,60.17905,44.76551
2445390,341.6294,199.8683,59.65403,44.98112
2445412,334.4308,200.896,59.11927,45.12806
2445436,324.9939,202.1582,58.39202,45.30748
2445459,317.339,203.0949,57.77919,45.4399
2445481,305.6788,204.4849,56.80402,45.63527
2445512,297.4306,205.0853,56.0821,45.71924
2445529,288.0139,205.7951,55.22346,45.81818
2445552,277.6162,206.1563,54.2303,45.86839
2445575,268.7763,206.1184,53.34657,45.86313
2445600,257.9099,206.0494,52.20769,45.85355
