Time Stamp(ms),Intersection,,Angle,
,x,y,x,y
2083092,306.977,230.7817,56.91517,49.08715
2083107,306.6379,230.1516,56.8862,49.0096
2083124,306.422,229.702,56.86773,48.95413
2083143,306.1444,229.1965,56.84396,48.89161
2083162,305.2421,228.21,56.76648,48.76913
2083181,303.9785,227.3568,56.65743,48.66273
2083202,302.3474,227.0453,56.51573,48.62377
2083223,300.6866,227.3087,56.37036,48.65672
2083242,298.7313,227.9732,56.19777,48.73965
2083258,296.812,228.915,56.02683,48.85672
2083277,294.4937,230.1172,55.81833,49.00536
2083298,292.2424,231.2578,55.61369,49.14558
2083312,289.7071,232.3324,55.38065,49.27696
2083331,287.0544,232.8978,55.13384,49.3458
2083351,284.4348,232.9827,54.88707,49.35613
2083370,281.8662,232.7294,54.64214,49.32532
2083389,278.9202,232.2655,54.35755,49.2688
2083410,276.7261,231.8403,54.143,49.21688
2083425,273.9255,231.1449,53.86586,49.13174
2083444,270.4305,229.9975,53.5148,48.9906
2083463,265.9501,228.9832,53.05608,48.86518
2083486,261.2898,228.2632,52.56834,48.77576
2083505,256.1335,227.5489,52.01576,48.68673
2083523,248.9637,226.0861,51.22404,48.50343
2083542,240.1252,224.2388,50.20912,48.27003
2083560,232.6391,222.884,49.31433,48.09749
2083578,224.2461,221.7575,48.27095,47.95314
2083596,215.0282,220.6935,47.07378,47.81605
2083618,205.5612,219.6925,45.78561,47.68642
2083638,196.886,218.5027,44.55046,47.5315
2083655,188.6646,217.1815,43.32944,47.35838
2083674,180.4493,215.9359,42.05825,47.19411
2083694,175.5231,215.3243,41.27068,47.1131
2083709,169.7307,214.8307,40.31972,47.04752
2083728,164.9592,214.6016,39.51568,47.01703
2083746,160.6231,214.5289,38.76849,47.00735
2083766,157.5518,214.631,38.2296,47.02094
2083790,155.6462,214.5224,37.89116,47.00649
2083806,154.2737,213.8689,37.64546,46.91928
2083824,153.0496,212.797,37.42495,46.77564
2083843,152.1674,211.9631,37.26521,46.66336
2083860,152.2601,211.0238,37.28203,46.53633
2083878,152.3691,209.9805,37.3018,46.39453
2083897,152.5728,208.9118,37.33871,46.2485
2083919,153.0577,207.6533,37.42641,46.07555
2083941,154.6746,206.0475,37.7174,45.85327
2083955,156.8051,204.8555,38.09734,45.68713
2083974,159.1981,203.6033,38.51946,45.51151
2083992,161.4538,201.493,38.91286,45.21306
2084011,163.348,199.5909,39.23989,44.94133
2084028,165.7947,197.2991,39.65783,44.61051
2084046,168.8319,194.5085,40.1697,44.20251
2084065,172.0363,190.9227,40.70151,43.66982
2084085,175.5043,186.9272,41.26765,43.06494
2084104,178.8212,182.9961,41.80009,42.4579
2084124,182.3956,178.2144,42.36413,41.70333
2084142,186.3397,172.178,42.97497,40.72483
2084162,189.0353,166.4201,43.38558,39.76386
2084178,191.2915,161.5405,43.72504,38.9279
2084196,193.7896,156.243,44.09647,37.99748
2084220,196.1774,152.1211,44.44719,37.25682
2084238,198.1857,148.7801,44.73893,36.64558
2084255,199.4164,145.8209,44.91628,36.09596
2084276,200.2492,142.4116,45.03567,35.45308
2084294,200.1284,139.2018,45.01839,34.83825
2084312,199.784,136.7032,44.96904,34.35324
2084330,199.7749,134.9946,44.96774,34.01828
2084348,199.8898,133.5959,44.98421,33.74212
2084368,200.2578,132.6419,45.0369,33.55272
2084386,201.0254,131.6392,45.14651,33.35275
2084403,202.1868,130.79,45.31153,33.18268
2084424,204.2903,129.9401,45.608,33.0118
2084444,206.8027,129.5219,45.95803,32.92747
2084462,210.6609,129.1359,46.48708,32.8495
2084480,214.8877,129.0459,47.05511,32.83131
2084498,219.3946,129.2987,47.64772,32.88241
2084515,225.4483,130.095,48.42308,33.043
2084534,231.329,130.5591,49.1543,33.13632
2084553,237.9092,131.1535,49.94768,33.25557
2084573,244.7125,131.426,50.74136,33.31011
2084592,251.6785,131.3071,51.52707,33.28632
2084613,258.6597,131.1151,52.2882,33.24787
2084628,266.1259,131.1122,53.07426,33.24728
2084648,273.5243,130.7617,53.82586,33.177
2084667,280.8274,129.6856,54.54224,32.9605
2084687,287.3873,128.504,55.16498,32.72155
2084702,295.584,126.9939,55.91667,32.4143
2084722,304.1367,125.9607,56.67112,32.20287
2084742,313.0472,124.6776,57.42625,31.93891
2084761,321.8,123.2355,58.13889,31.64044
2084780,330.5621,121.8963,58.8248,31.36153
2084796,338.3959,120.6284,59.4159,31.09594
2084814,346.8651,119.2855,60.03255,30.81301
2084832,355.3865,118.5837,60.6306,30.66448
2084851,363.217,118.3188,61.16128,30.60831
2084870,369.8928,118.1667,61.60004,30.57601
2084890,376.3898,118.6856,62.01543,30.68608
2084909,382.6545,119.4283,62.40552,30.84318
2084930,387.992,120.2896,62.73005,31.02472
2084947,392.1287,121.1814,62.97675,31.21197
2084964,395.4179,122.1132,63.16999,31.40682
2084981,398.1909,121.9648,63.33092,31.37584
2085001,400.7426,121.7373,63.47744,31.3283
2085020,402.8036,121.8878,63.59468,31.35976
2085039,404.1463,121.9035,63.67056,31.36304
2085059,406.3018,121.6593,63.79152,31.312
2085077,409.3995,120.9517,63.96355,31.1638
2085097,411.8905,119.8355,64.10037,30.9291
2085113,414.0887,118.8768,64.22,30.72658
2085131,416.0704,117.4848,64.32697,30.431
2085151,417.5968,115.5619,64.40881,30.01973
2085170,419.1962,113.8063,64.49403,29.64123
2085186,420.9319,112.2219,64.58591,29.29719
2085206,421.6883,111.1372,64.62576,29.06031
2085225,421.17,111.0226,64.59846,29.03522
2085244,420.3653,111.0055,64.55598,29.03148
2085261,418.8386,110.5327,64.47501,28.92784
2085280,417.8062,109.8802,64.41998,28.78443
2085297,415.7357,109.451,64.30896,28.68989
2085316,412.8141,109.3608,64.15076,28.67002
2085336,408.615,109.8578,63.92018,28.77951
2085363,405.637,110.9493,63.75432,29.01916
2085376,402.0549,112.711,63.5522,29.40365
2085394,398.0874,114.4824,63.32494,29.78735
2085414,394.7654,116.1981,63.13186,30.15618
2085432,392.1557,117.5634,62.97835,30.44773
2085449,389.684,118.7593,62.83146,30.70168
2085467,387.2856,119.7564,62.6875,30.91241
2085484,384.9294,120.6814,62.5447,31.10707
2085504,382.5669,121.8022,62.40014,31.34187
2085526,380.2675,123.0714,62.25808,31.60636
2085543,377.4157,124.9557,62.08,31.99627
2085563,374.1945,127.4388,61.87633,32.50504
2085580,371.0715,129.9154,61.67624,33.00683
2085597,366.1328,134.2655,61.35443,33.87456
2085616,360.975,138.3336,61.01114,34.67036
2085634,353.443,144.0171,60.49612,35.75712
2085655,344.9337,150.4149,59.89392,36.94588
2085674,335.6665,157.3541,59.21227,38.19462
2085694,326.988,163.578,58.54824,39.27939
2085711,317.0301,169.903,57.75402,40.3484
2085730,306.6256,175.958,56.88515,41.341
2085748,296.8681,181.7497,56.03186,42.26295
2085765,286.5004,187.534,55.08191,43.15757
2085784,276.6967,192.2699,54.14011,43.87107
2085804,266.8027,196.9208,53.14413,44.55552
2085824,257.2108,202.1277,52.13235,45.30315
2085843,247.6586,207.6599,51.07693,46.07646
2085863,238.7375,212.7174,50.04573,46.76494
2085881,231.555,216.3397,49.18198,47.24749
2085899,224.9247,219.0434,48.35694,47.60201
2085915,218.2387,221.3699,47.49699,47.90328
2085938,213.2056,222.8728,46.83049,48.09606
2085956,208.8096,223.5356,46.2345,48.18061
2085976,205.3886,223.8902,45.76156,48.22574
2085995,203.1894,224.6035,45.45322,48.31628
2086014,200.7026,225.7376,45.10046,48.45955
2086033,199.7468,227.0502,44.96371,48.62438
2086050,199.1588,228.7283,44.87926,48.83355
2086067,199.1556,230.5018,44.8788,49.05274
2086086,199,232.0463,44.8564,49.24205
2086108,199.5671,233.6608,44.93793,49.4384
2086128,200.5046,235.1341,45.07219,49.61623
2086146,201.5985,236.444,45.22805,49.77325
2086165,202.5889,237.7184,45.36843,49.92504
2086183,203.491,238.8488,45.4957,50.05889
2086201,204.5694,240.0135,45.64709,50.19601
2086220,206.3028,241.2827,45.88873,50.34456
2086249,209.0688,242.8443,46.27001,50.52605
2086262,211.4306,243.8921,46.59142,50.64706
2086277,214.6085,244.9907,47.01795,50.77327
2086296,219.9181,246.4578,47.71569,50.94075
2086316,224.2677,247.6922,48.2737,51.08073
2086334,228.9093,248.5981,48.85601,51.18293
2086350,234.6558,249.5127,49.55864,51.28565
2086369,241.2266,250.2132,50.33801,51.36401
2086390,247.5937,250.8415,51.06959,51.43408
2086410,255.736,251.492,51.97258,51.50639
2086432,262.887,252.2535,52.73674,51.59075
2086448,270.6136,253.182,53.53334,51.69319
2086467,279.8235,254.3804,54.44524,51.82471
2086487,286.2386,255.3944,55.05732,51.93541
2086501,294.2011,256.4681,55.79185,52.05203
2086522,301.8576,257.1348,56.47298,52.12414
2086542,310.3074,258.0361,57.19733,52.22126
2086562,318.7004,259.0856,57.88973,52.33381
2086581,327.7151,260.3206,58.60485,52.46553
2086599,336.1988,261.192,59.25217,52.55799
2086618,345.9762,261.7606,59.96889,52.61811
2086638,353.4688,262.2141,60.49791,52.66594
2086654,361.8351,262.6561,61.0689,52.71247
2086674,370.0742,263.2127,61.61179,52.77092
2086693,377.7093,264.1031,62.09843,52.86408
2086713,385.0956,264.5305,62.55482,52.90866
2086732,392.0775,264.762,62.97372,52.93277
2086751,398.2557,264.9767,63.33466,52.9551
2086769,404.9229,265.0028,63.71426,52.95782
2086794,411.7553,265.1428,64.09298,52.97236
2086816,418.5659,265.7733,64.4605,53.03777
2086836,423.8353,266.2356,64.73824,53.0856
2086857,429.7463,266.5216,65.04316,53.11514
2086883,434.3696,266.5587,65.27689,53.11896
2086908,440.2372,266.6781,65.56767,53.13128
2086936,441.9399,266.3012,65.65086,53.09238
2086961,443.6271,265.7423,65.73277,53.03456
2086984,446.0387,265.3097,65.84894,52.9897
2087006,447.5647,264.8895,65.92191,52.94603
2087034,449.1609,264.3235,65.9978,52.88708
2087060,449.8898,264.4281,66.0323,52.89799
2087083,449.9901,264.4338,66.03704,52.89859
2087107,449.8301,263.7137,66.02948,52.82338
2087133,449.3229,263.8217,66.00548,52.83468
2087157,448.1506,263.9961,65.94982,52.8529
2087181,446.1873,264.1754,65.85606,52.87163
2087207,443.6147,264.3694,65.73216,52.89186
2087232,440.136,264.6517,65.56271,52.92128
2087256,436.2686,265.4144,65.3717,53.00056
2087280,431.3026,266.5936,65.1223,53.12256
2087303,426.4814,267.8044,64.8756,53.24712
2087326,419.5309,269.1659,64.5118,53.38631
2087351,410.7215,269.9278,64.03632,53.46382
2087377,400.3411,270.0914,63.45448,53.48042
2087400,385.5612,268.9401,62.58313,53.36329
2087422,369.4953,267.1057,61.57425,53.17534
2087448,349.6106,263.6446,60.22764,52.81616
2087472,328.7434,259.8697,58.68462,52.41753
2087495,299.8185,256.2418,56.29393,52.02751
2087521,279.5303,255.0075,54.41682,51.89324
2087544,255.8259,254.6888,51.98235,51.85844
2087569,239.9431,254.1368,50.18775,51.79804
2087591,225.6407,253.6471,48.44734,51.74433
2087618,212.2371,253.0766,46.70031,51.68158
2087644,203.4458,252.3874,45.48935,51.60555
2087666,195.489,252.0842,44.34651,51.57201
2087688,193.7617,253.2043,44.09235,51.69564
2087712,192.0239,254.0776,43.83443,51.79156
2087737,192.6862,254.6263,43.93298,51.85161
2087762,194.7453,255.0018,44.23735,51.89262
2087785,195.8618,255.547,44.40108,51.95202
2087814,200.2941,256.0663,45.04209,52.00847
2087831,203.969,256.1677,45.56292,52.01947
2087856,207.6123,256.112,46.0699,52.01343
2087882,211.314,256.2241,46.57564,52.02559
2087905,215.1895,256.244,47.09521,52.02775
2087928,219.6322,256.0923,47.67859,52.01129
2087953,224.9834,256.5776,48.36436,52.06389
2087976,230.4442,256.4088,49.04565,52.0456
2088001,238.6055,255.7061,50.03014,51.96933
2088024,248.9541,254.783,51.22297,51.86873
2088050,261.1602,253.8623,52.55463,51.76795
2088073,273.877,252.6082,53.86103,51.62994
2088097,287.198,250.6433,55.14727,51.41199
2088121,299.872,248.762,56.29865,51.20137
2088146,311.5173,247.7717,57.29877,51.08971
2088170,321.7331,247.0184,58.13354,51.00442
2088192,330.7434,247.1796,58.83871,51.0227
2088220,339.0578,247.8436,59.46492,51.09785
2088242,345.2603,247.8898,59.91745,51.10306
2088269,351.3974,247.8725,60.35337,51.1011
2088291,355.3516,247.7267,60.6282,51.08463
2088315,358.4631,247.3247,60.84122,51.03915
2088340,360.3124,246.699,60.96649,50.96816
2088363,361.778,245.9388,61.06508,50.88163
2088388,362.4923,245.161,61.1129,50.79276
2088410,363.0105,244.3004,61.14751,50.69405
2088438,363.9586,243.0548,61.21063,50.55042
2088458,364.8185,241.9804,61.26766,50.42582
2088482,365.6756,241.0839,61.3243,50.32135
2088508,366.2129,240.4749,61.3597,50.25012
2088532,366.4412,240.074,61.37472,50.20311
2088555,366.3566,240.081,61.36916,50.20393
2088578,366.0699,240.0571,61.35029,50.20113
2088605,365.9295,239.8896,61.34104,50.18147
2088626,365.7669,239.6103,61.33033,50.14863
2088649,365.5554,239.5708,61.31637,50.14399
2088673,365.2914,239.7544,61.29893,50.16557
2088698,364.9183,239.9156,61.27427,50.18452
2088721,364.5697,239.742,61.25118,50.16411
2088744,364.2794,239.5289,61.23193,50.13905
2088770,363.9482,239.3566,61.20994,50.11876
2088793,363.818,239.4108,61.20129,50.12515
2088817,363.6624,239.7043,61.19094,50.15969
2088842,362.9862,240.1087,61.14589,50.20718
2088865,362.01,240.1958,61.08062,50.21741
2088888,361.1875,240.2419,61.02543,50.22281
2088915,360.2188,240.3871,60.96017,50.23984
2088940,359.272,240.4622,60.89613,50.24863
2088962,358.2549,240.4457,60.82705,50.2467
2088988,357.3102,240.4543,60.76261,50.24771
2089010,356.4512,240.5289,60.7038,50.25645
2089036,355.5768,240.556,60.64371,50.25962
2089057,354.934,240.5069,60.59939,50.25387
2089082,354.2391,240.6985,60.55134,50.2763
2089107,353.8239,240.7711,60.52257,50.2848
2089129,353.4671,240.6035,60.4978,50.26518
2089154,353.3303,240.6311,60.48829,50.26841
2089177,353.3985,241.0272,60.49303,50.31473
2089204,353.5588,240.9229,60.50417,50.30255
2089226,353.7097,240.9066,60.51464,50.30063
2089252,354.0218,241.0134,60.53629,50.31312
2089276,354.1493,241.1378,60.54512,50.32764
2089301,354.2299,241.2699,60.55071,50.34306
2089323,354.187,241.8169,60.54774,50.4068
2089345,354.0797,242.5616,60.5403,50.4933
2089374,353.9545,242.8443,60.53162,50.52606
2089398,353.7753,242.7844,60.51919,50.51912
2089421,353.5857,242.5723,60.50603,50.49454
2089443,353.3647,242.5641,60.49068,50.49359
2089468,353.0291,242.3394,60.46734,50.46753
2089490,352.8576,241.9509,60.4554,50.42239
2089514,352.7787,241.7768,60.44991,50.40214
2089540,352.864,242.0691,60.45584,50.43613
2089563,353.1527,242.5046,60.47594,50.48669
2089590,353.5349,243.0544,60.5025,50.55036
2089610,354.1978,243.5863,60.54848,50.6118
2089636,354.8455,244.1009,60.59328,50.6711
2089660,355.366,244.3707,60.62919,50.70213
2089684,355.8741,244.7306,60.66417,50.74345
2089707,356.1151,244.9365,60.68073,50.76704
2089731,356.2443,244.9671,60.6896,50.77056
2089757,356.1201,244.9545,60.68108,50.76911
2089778,355.9993,244.8905,60.67277,50.76177
2089803,355.6963,244.9146,60.65194,50.76454
2089826,355.3244,245.0228,60.62632,50.77694
2089851,355.1052,244.6823,60.6112,50.7379
2089877,354.8389,244.5019,60.59282,50.71719
2089902,354.3066,244.5368,60.55602,50.7212
2089923,353.8295,244.5391,60.52295,50.72147
2089946,353.5991,244.4689,60.50697,50.71341
2089974,353.5323,244.2452,60.50233,50.6877
2089995,353.6442,244.1071,60.51009,50.67181
2090021,353.8701,244.2189,60.52577,50.68467
2090044,354.2657,244.43,60.55319,50.70893
2090067,354.6503,244.5002,60.57979,50.717
2090092,355.2431,244.325,60.62072,50.69687
2090117,355.6812,244.4716,60.65089,50.71372
2090142,355.9601,244.8518,60.67008,50.75734
2090162,356.2553,245.2418,60.69036,50.80201
2090187,356.4711,245.1927,60.70517,50.79639
2090211,356.5169,245.0493,60.70831,50.77997
2090237,356.5,245.0224,60.70715,50.77689
2090262,356.3306,244.8506,60.69552,50.7572
2090284,356.0227,244.5918,60.67438,50.72752
2090308,355.6317,244.1857,60.64749,50.68085
2090336,355.3266,243.86,60.62647,50.64335
2090358,355.2312,243.124,60.6199,50.55841
2090380,355.7137,242.1404,60.65313,50.44441
2090404,356.8866,242.0017,60.73364,50.4283
2090430,358.4823,243.4478,60.84252,50.59583
2090463,359.9057,246.5741,60.93902,50.95396
2090478,360.6552,250.2128,60.9896,51.36397
2090501,361.1715,254.2361,61.02435,51.80892
2090526,361.346,257.593,61.03608,52.17357
2090550,361.3985,260.8839,61.03961,52.52534
2090575,361.2982,262.9514,61.03287,52.7435
2090598,361.558,265.5454,61.05032,53.01415
2090623,362.0474,268.3293,61.08313,53.3009
2090647,362.5139,270.6172,61.11435,53.5337
2090671,363.0485,271.5549,61.15005,53.62838
2090696,363.8447,272.442,61.20306,53.71756
2090721,364.892,273.9075,61.27253,53.86407
2090744,366.1331,275.6231,61.35445,54.03429
2090768,367.9368,277.7288,61.47275,54.24132
2090801,369.1133,278.4659,61.54943,54.3133
2090819,370.5934,279.7943,61.64537,54.44241
2090842,372.5193,281.8125,61.76932,54.637
2090864,374.4691,283.5985,61.8938,54.80766
2090890,376.3371,284.776,62.0121,54.91939
2090914,377.6124,286.1016,62.09235,55.04443
2090938,378.919,288.4195,62.17413,55.26123
2090961,380.0044,290.7638,62.24173,55.47811
2090984,381.2647,292.98,62.31985,55.68097
2091009,382.6345,294.5259,62.40429,55.82125
2091034,384.0005,294.9728,62.48803,55.86161
2091059,385.7504,296.7496,62.59462,56.02126
2091085,387.13,299.0651,62.67811,56.22734
2091107,388.5357,300.8956,62.76271,56.38871
2091133,389.461,301.3065,62.81813,56.42475
2091155,389.9055,302.068,62.84468,56.49135
2091180,389.5184,303.96,62.82156,56.65583
2091204,388.9782,305.212,62.78924,56.76389
2091225,388.4171,306.4488,62.75559,56.87002
2091248,388.2386,307.3651,62.74487,56.94827
2091274,387.7578,309.3879,62.71595,57.11985
2091296,387.4008,310.6597,62.69445,57.22692
2091321,387.0535,312.4464,62.6735,57.3763
2091345,386.5623,314.5012,62.64381,57.54659
2091369,384.7762,316.5337,62.53537,57.71349
2091392,383.231,317.2015,62.44091,57.76799
2091417,381.2247,317.9646,62.31738,57.83007
2091441,377.7633,318.6477,62.10182,57.88546
2091463,374.7782,319.0313,61.91344,57.91649
2091488,371.4552,320.5236,61.70096,58.03671
2091513,369.1439,320.7811,61.55143,58.05736
2091537,366.6023,323.0722,61.38531,58.24015
2091560,364.0797,325.0472,61.21868,58.39621
2091585,362.3022,325.5602,61.10019,58.43652
2091608,360.438,325.9544,60.97496,58.46744
2091638,358.4781,327.5414,60.84223,58.59135
2091656,355.67,329.7818,60.65012,58.76479
2091681,353.4507,330.7496,60.49665,58.83919
2091706,351.6865,331.6154,60.37362,58.90548
2091728,351.0428,332.4561,60.3285,58.96959
2091750,351.6259,334.2904,60.36937,59.10867
2091778,351.1902,336.7712,60.33884,59.29499
2091798,350.0905,339.0764,60.2615,59.4663
2091824,348.9153,341.1794,60.17845,59.62109
2091846,348.1121,342.6816,60.12144,59.73079
2091870,346.7535,344.3029,60.02457,59.84839
2091895,345.6277,344.8959,59.94387,59.89119
2091919,345.0435,346.1681,59.90183,59.98265
2091945,343.1923,347.4284,59.76792,60.07277
2091965,341.1014,348.9468,59.61537,60.18068
2091995,339.3076,351.1878,59.48339,60.33867
2092014,337.7582,353.3267,59.36855,60.48804
2092039,334.9153,356.054,59.1558,60.67653
2092063,332.3815,356.9618,58.96391,60.73879
2092086,331.0361,356.7028,58.86115,60.72105
2092109,331.3014,356.6747,58.88146,60.71912
2092134,331.2929,358.3158,58.88082,60.83119
2092158,329.714,361.4813,58.75957,61.04517
2092181,328.0861,363.4367,58.63367,61.17592
2092204,328.5294,366.1138,58.66805,61.35318
2092229,329.5052,370.7829,58.74348,61.65761
2092252,329.1964,375.3937,58.71964,61.95247
2092278,326.4453,379.6165,58.50586,62.21761
2092298,325.1681,381.7604,58.40572,62.35046
2092323,326.0403,383.5678,58.47417,62.46155
2092348,325.0016,383.9587,58.39262,62.48547
2092371,322.9991,383.1831,58.23434,62.43798
2092395,322.0819,381.2055,58.16137,62.31619
2092417,322.5445,381.6848,58.19821,62.34579
2092446,323.0339,383.8727,58.23711,62.48021
2092465,322.7442,386.3661,58.2141,62.63194
2092489,322.3091,388.4816,58.17948,62.75946
2092513,322.7804,390.3614,58.21697,62.87186
2092536,323.4452,392.7639,58.26973,63.01427
2092561,323.63,394.8338,58.28436,63.13586
2092583,323.7652,395.735,58.29506,63.18848
2092607,323.9453,396.8619,58.3093,63.25401
2092633,323.9384,396.5741,58.30877,63.2373
2092656,323.6254,396.1413,58.284,63.21214
2092680,323.4153,396.2832,58.26736,63.2204
2092703,324.0261,396.7058,58.31569,63.24495
2092726,325.2005,396.6024,58.40826,63.23895
2092749,326.742,395.1085,58.52905,63.15192
2092773,328.6465,394.3004,58.67712,63.10463
2092798,330.5935,393.7803,58.82721,63.0741
2092823,331.7721,393.6135,58.91744,63.0643
2092853,332.8073,393.3715,58.99631,63.05006
2092868,333.67,392.2011,59.06176,62.98103
2092895,334.2364,390.8356,59.10459,62.90008
2092915,334.2404,389.5739,59.10489,62.82488
2092941,332.0639,383.8825,58.9397,62.48082
2092964,330.702,376.6053,58.83554,62.02902
2092987,328.5735,367.7982,58.67146,61.4637
2093014,325.8181,358.8007,58.45676,60.86416
2093036,325.1956,353.0636,58.40788,60.46974
2093060,324.5829,346.0055,58.35964,59.97099
