Time Stamp(ms),Intersection,,Angle,
,x,y,x,y
2465673,257.3387,235.8708,52.14615,49.70466
2465693,247.9933,234.8582,51.11475,49.58302
2465717,237.2255,233.6529,49.86644,49.43744
2465740,226.1945,231.9107,48.51706,49.22549
2465764,216.5022,230.716,47.26892,49.07907
2465785,205.0487,229.5876,45.71412,48.93999
2465809,195.6171,228.5423,44.36526,48.81046
2465833,187.0406,228.1322,43.08226,48.75945
2465858,180.157,229.2566,42.01205,48.89904
2465880,174.8904,231.1673,41.16813,49.13448
2465905,171.7867,233.9065,40.66038,49.46815
2465929,171.3643,235.1362,40.59068,49.61647
2465951,170.7864,235.7828,40.49508,49.69411
2465975,170.6953,236.8139,40.47998,49.8174
2465998,170.7935,238.1726,40.49625,49.9789
2466020,170.5597,238.7753,40.45749,50.05021
2466045,170.3249,239.4949,40.41852,50.13506
2466067,169.8147,240.4444,40.33371,50.24655
2466092,169.1784,241.1307,40.22761,50.32682
2466118,169.1704,241.3115,40.22628,50.34792
2466144,170.6664,239.3482,40.47519,50.11778
2466165,172.0177,237.5165,40.69845,49.90105
2466186,173.5957,236.2074,40.95729,49.74495
2466210,175.3644,234.8719,41.245,49.58468
2466234,177.8454,233.4294,41.64436,49.41036
2466257,180.554,232.2668,42.07478,49.26895
2466279,184.0768,230.4675,42.62597,49.04852
2466304,188.3386,227.4055,43.27998,48.66882
2466326,194.5916,222.5125,44.21473,48.04998
2466348,199.9426,218.6335,44.99177,47.54857
2466370,206.6618,214.2991,45.93852,46.97673
2466398,211.9936,211.0284,46.66748,46.53694
2466420,219.7009,206.6055,47.68751,45.93072
2466442,228.9991,202.4056,48.86715,45.34252
2466464,236.5339,199.8504,49.78399,44.97857
2466488,245.2101,198.0277,50.79839,44.71609
2466513,255.1509,197.4749,51.90889,44.63602
2466536,264.3418,197.5241,52.88899,44.64315
2466559,273.0428,198.1116,53.77775,44.72823
2466582,280.8891,198.0582,54.54819,44.72051
2466609,288.4761,198.1445,55.2665,44.73298
2466629,298.105,198.9334,56.14216,44.84682
2466666,304.6615,199.7109,56.71645,44.95856
2466679,310.9445,200.2003,57.25081,45.02868
2466701,316.7538,200.2092,57.73147,45.02995
2466724,323.1849,199.5398,58.24908,44.934
2466747,327.7739,198.832,58.60943,44.8322
2466770,332.7494,198.2104,58.99191,44.74251
2466795,337.0767,197.8585,59.31779,44.6916
2466816,340.6636,197.8733,59.58325,44.69374
2466842,343.5878,198.294,59.79662,44.75459
2466863,345.1887,198.6912,59.91228,44.81191
2466885,346.0617,198.9259,59.97503,44.84573
2466910,346.364,198.8287,59.99669,44.83173
2466932,346.8759,198.3152,60.03332,44.75765
2466964,347.6038,197.617,60.08527,44.65662
2466985,348.1387,197.3721,60.12334,44.6211
2467009,348.4102,197.8463,60.14262,44.68984
2467031,348.4848,198.2146,60.14792,44.74311
2467059,348.5467,198.3344,60.15231,44.76043
2467078,349.0266,198.5305,60.18633,44.78873
2467104,349.5678,199.104,60.22462,44.87138
2467125,350.2126,200.081,60.2701,45.0116
2467147,351.1801,201.0543,60.33813,45.15062
2467172,352.3093,201.9213,60.41716,45.27388
2467198,353.4235,202.7964,60.49477,45.39777
2467218,355.2552,203.5355,60.62156,45.50198
2467243,357.7784,204.3513,60.79458,45.61655
2467265,360.0457,204.9736,60.94848,45.70363
2467288,362.8405,205.531,61.13617,45.7814
2467314,365.5501,205.8109,61.31602,45.82037
2467335,368.7904,206.2748,61.52843,45.88485
2467360,372.5287,206.9595,61.76992,45.97974
2467383,375.7961,207.6527,61.97794,46.07547
2467407,379.398,208.5283,62.20401,46.19592
2467429,382.6385,209.7449,62.40454,46.3624
2467453,385.6149,211.7167,62.58639,46.63009
2467479,388.9436,214.0517,62.78717,46.94371
2467499,393.0881,215.705,63.03338,47.16356
2467523,398.2599,216.5143,63.3349,47.27052
2467546,402.6345,216.8043,63.5851,47.30875
2467569,407.5289,217.4453,63.85992,47.39303
2467595,414.3895,218.6079,64.23629,47.54523
2467618,419.247,219.2202,64.49672,47.62503
2467642,424.535,219.8035,64.7747,47.70082
2467666,428.3863,220.5198,64.97362,47.79361
2467687,431.5213,221.0805,65.13338,47.866
2467713,434.6646,221.4519,65.29166,47.91385
2467735,436.8637,221.4505,65.40128,47.91366
2467759,438.8299,220.9792,65.49852,47.85294
2467782,439.313,220.919,65.5223,47.84517
2467804,439.3107,221.1165,65.52219,47.87064
2467830,439.0319,220.9371,65.50847,47.8475
2467852,437.9548,220.7479,65.45533,47.82308
2467875,435.92,220.5755,65.35435,47.80081
2467900,433.7631,221.0129,65.24646,47.85728
2467923,431.689,221.6076,65.14188,47.93388
2467947,429.8516,222.0625,65.04853,47.9923
2467969,428.1121,222.6483,64.95956,48.06735
2467993,425.5808,223.3098,64.82901,48.15184
2468018,423.2151,223.7675,64.70585,48.21014
2468041,421.4632,223.8713,64.61391,48.22334
2468066,419.9933,223.7769,64.5363,48.21133
2468086,417.6361,223.7063,64.4109,48.20235
2468110,414.2445,223.7845,64.22844,48.2123
2468141,411.4302,224.0573,64.07519,48.24697
2468162,407.8708,223.6709,63.87891,48.19785
2468184,401.7896,221.5142,63.53712,47.92185
2468208,392.5637,217.8082,63.00246,47.44064
2468233,384.0174,213.192,62.48906,46.82866
2468251,375.9496,209.993,61.98764,46.39622
2468276,364.3336,207.9068,61.23553,46.11047
2468303,356.7217,206.9571,60.72234,45.9794
2468325,352.5699,205.8761,60.43534,45.82944
2468352,347.9879,205.3999,60.11261,45.76314
2468368,343.4604,206.7931,59.78738,45.9567
2468392,341.0421,208.1924,59.61103,46.14978
2468415,340.2435,208.7886,59.55238,46.23162
2468438,338.9976,209.0887,59.46047,46.27272
2468463,338.4888,209.6669,59.42279,46.35175
2468488,339.5096,209.9042,59.4983,46.38412
2468513,340.2008,209.1143,59.54924,46.27623
2468537,340.2827,208.6156,59.55526,46.2079
2468566,340.1247,207.7083,59.54364,46.08312
2468585,340.099,206.6991,59.54175,45.94369
2468605,340.1062,205.5269,59.54227,45.78083
2468628,339.6406,204.2932,59.50797,45.6084
2468655,338.773,203.1342,59.44385,45.44544
2468679,337.9538,202.5898,59.38309,45.36857
2468703,337.7179,201.8347,59.36555,45.26161
2468726,336.9337,201.1647,59.30711,45.16634
2468750,336.2292,201.1043,59.25445,45.15774
2468773,336.239,201.2284,59.25519,45.17541
2468795,335.8278,200.2174,59.22437,45.03112
2468819,334.9096,199.5452,59.15536,44.93478
2468844,334.036,200.2626,59.08944,45.03759
2468868,333.2713,201.5157,59.03154,45.21629
2468890,333.253,203.3768,59.03015,45.47963
2468916,333.5195,205.6218,59.05035,45.79405
2468938,333.6268,207.1909,59.05848,46.01173
2468963,333.5562,208.6485,59.05313,46.2124
2468988,333.4312,210.0309,59.04366,46.40139
2469009,333.5548,210.7284,59.05303,46.49625
2469036,334.157,211.2548,59.09859,46.56762
2469057,334.5789,211.6137,59.13044,46.61617
2469081,334.5265,212.1546,59.12649,46.68918
2469105,334.2829,212.6423,59.1081,46.75485
2469126,333.9979,213.6968,59.08657,46.89628
2469151,334.3079,217.0908,59.10999,47.34645
2469174,335.0655,221.3816,59.1671,47.90479
2469200,337.6393,224.2573,59.3597,48.27238
2469222,338.8771,222.6343,59.45155,48.06556
2469243,338.6918,220.1345,59.43784,47.74374
2469268,337.995,218.9069,59.38615,47.58423
2469293,337.3236,219.6183,59.3362,47.67679
2469319,336.076,220.9292,59.24298,47.84649
2469339,335.3643,222.4614,59.18958,48.04343
2469362,335.3999,224.8651,59.19225,48.34939
2469387,335.4353,228.0007,59.1949,48.74308
2469413,335.6028,231.8694,59.20749,49.22044
2469435,337.4391,236.2252,59.3448,49.74709
2469455,339.9582,240.4719,59.53137,50.24977
2469481,342.5247,244.0062,59.71937,50.66019
2469506,343.5569,244.3664,59.79438,50.70162
2469526,344.4225,241.8058,59.85703,50.40551
2469553,345.8719,236.8792,59.96141,49.82519
2469577,346.612,234.2162,60.01445,49.50559
2469599,347.2444,234.6081,60.05964,49.55289
2469621,347.3791,235.6602,60.06925,49.67941
2469643,348.376,237.4761,60.14019,49.89625
2469668,350.6429,239.3469,60.3004,50.11762
2469692,353.0791,241.8464,60.47082,50.41023
2469717,355.7056,244.4351,60.65258,50.70952
2469740,357.5154,245.3322,60.77663,50.81235
2469760,359.3769,246.1923,60.90324,50.91052
2469785,360.8587,247.7934,61.00331,51.09217
2469808,361.4827,249.2137,61.04526,51.25212
2469832,361.2701,250.2889,61.03098,51.37246
2469856,360.95,250.986,61.00946,51.45016
2469880,360.6003,251.6592,60.9859,51.52494
2469910,360.4317,251.9924,60.97454,51.56185
2469924,360.5714,252.4839,60.98395,51.61621
2469951,361.3453,253.0123,61.03604,51.6745
2469975,362.4865,253.3165,61.11252,51.70798
2470000,363.7603,254.0186,61.19745,51.78509
2470022,365.0255,255.0089,61.28136,51.89339
2470045,365.8792,255.4818,61.33772,51.94493
2470069,366.6118,255.6609,61.38594,51.96442
2470092,367.4288,255.6145,61.43953,51.95937
2470116,367.9364,254.8513,61.47273,51.8762
2470139,367.8565,253.4057,61.4675,51.71779
2470164,367.7578,252.1455,61.46105,51.5788
2470188,368.215,251.0164,61.49092,51.45354
2470208,368.7921,250.1261,61.52854,51.35428
2470236,369.4675,248.8855,61.57244,51.21525
2470256,369.899,248.4039,61.60043,51.16105
2470280,369.8684,248.2129,61.59845,51.13953
2470305,369.3929,248.1056,61.5676,51.12742
2470327,369.0414,247.663,61.54476,51.07742
2470351,369.0736,247.1557,61.54686,51.02
2470375,369.3143,246.2685,61.5625,50.9192
2470399,369.8994,245.212,61.60046,50.7986
2470423,370.3188,244.4563,61.62762,50.71195
2470444,370.4439,243.5639,61.63571,50.60922
2470469,370.5011,242.7377,61.6394,50.51371
2470494,370.7367,241.7814,61.65463,50.40266
2470517,371.651,241.22,61.71356,50.33723
2470542,372.705,241.2144,61.78122,50.33659
2470562,373.5891,241.3898,61.83774,50.35705
2470587,374.6799,242.2965,61.90719,50.46254
2470609,376.0692,243.9351,61.9952,50.652
2470637,376.7818,246.5626,62.04014,50.95266
2470659,376.2729,249.4232,62.00806,51.27561
2470680,373.4008,252.4411,61.82572,51.61148
2470707,369.6189,253.2208,61.58227,51.69745
2470728,367.0282,252.3995,61.41327,51.60688
2470754,364.7462,250.6481,61.26287,51.41253
2470776,363.1369,249.5461,61.15594,51.28939
2470800,362.5433,249.5473,61.11631,51.28952
2470824,362.8289,249.762,61.13539,51.31357
2470845,363.6755,250.3461,61.19181,51.37885
2470872,364.4844,251.6268,61.24553,51.52135
2470893,365.2162,253.3027,61.29397,51.70647
2470919,365.5034,255.1583,61.31294,51.90969
2470943,365.3265,256.6795,61.30125,52.07492
2470965,364.8903,257.4825,61.27242,52.16167
2470992,364.6682,257.6994,61.25771,52.18503
2471012,364.4638,257.3965,61.24416,52.15239
2471039,364.4508,256.742,61.2433,52.08169
2471060,364.6894,256.363,61.25911,52.04065
2471083,365.1234,255.5853,61.28783,51.9562
2471112,365.909,255.3723,61.33969,51.93301
2471129,366.942,255.2177,61.40762,51.91616
2471153,368.0338,255.0916,61.47909,51.90241
2471180,369.9142,254.8756,61.60142,51.87885
2471204,372.9584,255.5157,61.79744,51.94862
2471226,378.9651,256.4126,62.17701,52.04602
2471250,384.8099,256.7325,62.53742,52.08066
2471276,392.6729,257.1959,63.0089,52.13074
2471298,402.5768,257.6843,63.58183,52.1834
2471321,416.8339,259.0739,64.36796,52.33256
2471345,428.5351,260.2986,64.98125,52.46318
2471365,438.1294,261.2333,65.46396,52.56236
2471390,450.0175,263.1168,66.03834,52.76085
2471413,457.6362,264.6574,66.39331,52.92188
2471437,463.4018,266.5379,66.65541,53.11682
2471463,466.0055,268.1478,66.77198,53.28231
2471486,468.2248,269.2995,66.87048,53.39993
2471520,469.6497,270.1302,66.9333,53.48435
2471543,469.204,270.5431,66.91369,53.5262
2471562,466.9408,271.1681,66.81359,53.58937
2471585,464.4245,271.9979,66.70133,53.67296
2471607,462.912,272.5766,66.63336,53.73106
2471625,461.401,273.1716,66.56508,53.79063
2471643,458.9454,273.4427,66.45331,53.81772
2471663,456.7945,273.5703,66.35458,53.83045
2471690,454.7975,274.2158,66.26221,53.89476
2471713,451.6812,274.8503,66.11671,53.95778
2471734,445.9855,275.6826,65.84638,54.04017
2471763,442.3961,276.3066,65.67306,54.10172
2471783,438.282,277.372,65.4715,54.20639
2471805,431.7738,278.7535,65.14617,54.34132
2471828,426.9042,279.9053,64.89742,54.45316
2471853,420.8146,280.673,64.57973,54.52735
2471874,413.8377,281.4916,64.2064,54.60618
2471898,407.7248,282.8581,63.8708,54.73708
2471923,400.2491,284.1802,63.44921,54.86293
2471945,394.6846,284.9623,63.12713,54.93701
2471966,389.3764,285.7655,62.81308,55.01281
2471993,383.0373,286.5393,62.42903,55.08556
2472015,376.4849,286.9156,62.02143,55.12084
2472041,370.4157,286.6642,61.63388,55.09727
2472061,365.3813,286.7057,61.30488,55.10117
2472085,359.82,286.6586,60.93323,55.09674
2472110,354.0765,286.3032,60.54008,55.06338
2472135,350.4752,286.1413,60.2886,55.04817
2472160,347.5128,286.1472,60.07878,55.04872
2472182,345.0784,285.9999,59.90434,55.03487
2472204,342.6774,285.671,59.73049,55.0039
2472226,341.0108,285.4509,59.60873,54.98315
2472249,339.6233,285.4595,59.50669,54.98396
2472274,338.1742,285.3496,59.39946,54.9736
2472298,336.8834,285.1844,59.30336,54.958
2472322,335.3742,284.6796,59.19032,54.91026
2472347,333.9396,284.0458,59.08216,54.85017
2472369,332.1389,283.7283,58.94543,54.82
2472396,330.4839,283.2773,58.8188,54.77707
2472416,329.0528,283.019,58.70855,54.75244
2472441,327.5218,282.8034,58.58983,54.73185
2472463,325.8434,282.3785,58.45874,54.69124
2472486,323.3688,282.15,58.26367,54.66935
2472510,321.0007,281.9261,58.07496,54.6479
2472534,318.9658,281.6949,57.9112,54.6257
2472559,317.5644,281.6059,57.79754,54.61716
2472580,316.3109,281.5799,57.69527,54.61466
2472604,314.8066,281.498,57.57177,54.60679
2472628,313.2128,281.1586,57.44,54.57415
2472650,311.9686,280.7201,57.33646,54.5319
2472679,311.0661,280.0329,57.261,54.46551
2472699,310.8876,279.0191,57.24604,54.36717
2472724,310.5264,278.3959,57.21572,54.30648
2472747,310.4924,277.6733,57.21287,54.2359
2472769,310.3389,276.98,57.19997,54.16794
2472793,310.5436,276.2755,57.21717,54.09866
2472816,310.8342,275.668,57.24156,54.03873
2472841,311.2278,274.6689,57.27454,53.93978
2472862,311.3778,274.0186,57.2871,53.87513
2472887,311.3076,273.1131,57.28123,53.78478
2472912,311.3448,272.2343,57.28434,53.69672
2472935,311.2923,270.9462,57.27995,53.56697
2472962,311.406,269.5147,57.28946,53.42183
2472988,311.1307,268.3467,57.26642,53.30267
2473005,310.9562,266.3309,57.25179,53.09544
2473029,310.572,264.5549,57.21955,52.9112
2473054,310.4187,263.2141,57.20668,52.77106
2473079,310.1812,261.7556,57.18671,52.61758
2473100,310.2023,260.1728,57.18848,52.44981
2473126,310.6971,258.9889,57.23005,52.32347
2473150,311.1707,258.0437,57.26976,52.22208
2473172,311.4106,256.9226,57.28984,52.10122
2473196,311.8055,255.7514,57.32285,51.97426
2473222,311.8282,254.7303,57.32475,51.86298
2473242,312.3618,253.6087,57.36924,51.7401
2473266,312.3586,252.8849,57.36898,51.66046
2473292,312.6597,252.0841,57.39405,51.57201
2473314,313.037,251.574,57.42541,51.51549
2473336,313.5427,250.8084,57.46735,51.43039
2473361,313.8517,250.2185,57.49293,51.3646
2473382,314.2743,249.6716,57.52787,51.30344
2473404,314.5922,248.7505,57.5541,51.20008
2473429,315.4031,248.1672,57.62084,51.13438
2473455,316.2793,247.7852,57.69269,51.09125
2473478,317.7296,246.6669,57.81098,50.96451
2473505,318.5338,245.8506,57.87624,50.87157
2473530,319.6795,245.6584,57.96881,50.84963
2473549,320.5057,246.2557,58.03527,50.91774
2473575,321.9749,245.8195,58.15284,50.86802
2473598,323.5076,245.1861,58.27467,50.79564
2473618,324.9767,244.9892,58.39067,50.77308
2473643,326.2125,245.779,58.48765,50.8634
2473666,327.2797,246.4386,58.57098,50.93855
2473691,328.4333,246.9755,58.66061,50.99956
2473716,329.5626,248.0383,58.7479,51.11982
2473740,330.7343,249.4655,58.83802,51.28036
2473761,331.6171,250.0026,58.9056,51.34049
2473784,331.5909,249.9038,58.9036,51.32943
2473809,331.5069,250.0669,58.89718,51.34766
2473834,331.3721,250.2572,58.88687,51.36893
2473859,331.388,250.4419,58.88809,51.38954
2473880,331.2653,250.4296,58.8787,51.38817
2473901,331.022,250.1149,58.86007,51.35303
2473928,330.6614,250.1942,58.83242,51.36189
2473952,330.3377,250.3242,58.80757,51.37641
2473977,330.0319,250.0164,58.78405,51.34203
2474002,329.7257,249.4226,58.76048,51.27555
2474025,329.5037,249.0998,58.74336,51.23933
2474047,329.1956,249.3109,58.71958,51.26302
2474066,329.1001,249.45,58.7122,51.27861
2474090,329.0662,249.0084,58.70959,51.22907
2474116,328.7943,248.7514,58.68856,51.20017
2474138,328.6768,249.3016,58.67947,51.26198
2474161,328.5415,248.885,58.66899,51.2152
2474184,328.3655,248.0042,58.65535,51.11597
2474207,328.3254,247.7063,58.65224,51.08232
2474231,328.1996,247.7052,58.64249,51.0822
2474254,328.04,247.4748,58.6301,51.05613
2474279,327.716,246.7358,58.60493,50.97234
2474302,327.339,246.3795,58.5756,50.93184
2474326,326.9637,246.7562,58.54635,50.97466
2474349,326.6879,247.4051,58.52482,51.04824
2474373,326.6415,247.4901,58.52119,51.05787
2474397,326.8114,247.073,58.53446,51.01062
2474422,327.0582,247.1535,58.55371,51.01974
2474445,327.4856,247.286,58.58701,51.03475
2474467,327.6708,247.0979,58.60142,51.01344
2474491,327.517,246.4992,58.58945,50.94545
2474516,327.3126,246.3076,58.57354,50.92366
2474539,327.1387,246.4596,58.55999,50.94095
2474563,326.7108,246.479,58.52661,50.94315
2474586,325.991,246.5173,58.47031,50.94751
2474608,324.4639,247.3563,58.35026,51.04272
2474633,322.4784,248.1912,58.19295,51.13708
2474655,318.4761,249.3867,57.87157,51.27152
2474681,312.1315,250.3091,57.35006,51.37473
2474705,304.7255,250.9224,56.72197,51.44308
2474728,297.1154,251.603,56.05396,51.51871
2474750,289.378,252.5426,55.3502,51.62269
2474774,281.7006,253.6118,54.62626,51.74044
2474798,274.6881,254.615,53.94169,51.85038
2474822,269.4619,255.4529,53.41646,51.94179
2474847,264.8623,256.4083,52.94321,52.04556
2474868,262.0578,257.0524,52.64948,52.11524
2474890,259.5551,258.3432,52.38398,52.25425
2474917,258.2055,259.8757,52.23947,52.41817
2474939,257.0915,261.0055,52.11947,52.53823
2474963,256.1237,262.761,52.01469,52.7235
2474987,255.2409,265.0067,51.91869,52.95822
2475016,254.5958,267.1644,51.84828,53.18137
2475035,254.1685,268.1033,51.80152,53.27775
2475057,254.0993,268.7813,51.79393,53.34709
2475083,253.951,269.6842,51.77768,53.43906
2475106,254.1124,270.8848,51.79537,53.56076
2475131,254.4264,272.0346,51.82975,53.67665
2475153,254.6503,272.5577,51.85424,53.72917
2475177,255.1502,272.9802,51.90881,53.77149
2475200,255.7831,273.9464,51.9777,53.86795
2475226,256.2072,274.7387,52.02375,53.94671
2475248,256.3357,275.0481,52.03769,53.97739
2475270,256.2892,275.2053,52.03264,53.99297
2475297,256.2077,275.6486,52.02381,54.0368
2475320,256.2997,275.9306,52.03379,54.06465
2475343,256.3643,275.8739,52.04078,54.05905
2475369,256.4499,275.1712,52.05006,53.98959
2475392,256.5233,275.4089,52.05802,54.01311
2475412,256.9045,275.9267,52.09927,54.06426
2475437,257.1762,275.8639,52.12862,54.05807
2475460,257.4378,275.9199,52.15684,54.0636
2475486,257.7241,276.3495,52.18769,54.10595
2475505,257.9804,276.7951,52.21527,54.14978
2475530,258.3678,276.9745,52.25689,54.1674
2475555,258.6397,276.7826,52.28606,54.14854
2475577,258.8568,276.88,52.30932,54.15812
2475603,259.3326,276.9821,52.36021,54.16815
2475624,259.9502,276.725,52.4261,54.14289
2475649,260.9565,276.4438,52.53304,54.11523
2475674,262.5351,276.3507,52.69975,54.10606
