Time Stamp(ms),Intersection,,Angle,
,x,y,x,y
1060467,328.1674,237.2677,58.63999,49.87147
1060484,328.303,237.2594,58.65051,49.87047
1060500,328.4669,237.0282,58.66321,49.84295
1060518,328.5618,236.6378,58.67056,49.79639
1060534,328.6386,236.0123,58.67651,49.72161
1060550,328.7088,235.1924,58.68194,49.62323
1060568,328.7458,234.3063,58.68481,49.51648
1060585,328.6528,233.1175,58.67761,49.37251
1060603,328.4845,232.3091,58.66457,49.27412
1060620,328.2412,231.6916,58.64571,49.1987
1060634,328.0258,231.2618,58.629,49.14607
1060651,328.0338,230.9074,58.62962,49.10258
1060667,328.1277,230.4689,58.63691,49.04868
1060683,328.3508,230.1676,58.65421,49.01157
1060700,328.422,230.3922,58.65973,49.03925
1060717,328.276,231.2068,58.64841,49.13933
1060733,328.0277,232.124,58.62915,49.25153
1060751,327.7442,233.1533,58.60712,49.37685
1060766,327.2768,234.2059,58.57075,49.50435
1060783,326.7903,234.7139,58.53281,49.56564
1060799,326.183,234.7174,58.48534,49.56607
1060816,325.3836,234.0744,58.42266,49.48846
1060834,324.5357,233.2434,58.35593,49.38779
1060850,323.766,232.4975,58.29512,49.29708
1060867,322.9145,231.5809,58.22763,49.18515
1060883,321.8568,230.4763,58.14341,49.04959
1060901,320.9686,229.5908,58.07239,48.94039
1060916,320.0312,228.8447,57.99713,48.848
1060933,318.9858,228.135,57.91282,48.7598
1060949,318.0945,227.1697,57.84062,48.63934
1060966,317.3109,225.7039,57.77691,48.45531
1060983,316.7021,223.1345,57.72725,48.12948
1061000,316.3799,220.2379,57.70092,47.75714
1061017,316.408,216.7759,57.70321,47.30501
1061035,316.8672,211.9008,57.74073,46.65496
1061049,317.4458,207.2414,57.78789,46.0187
1061065,318.5165,201.4943,57.87484,45.21325
1061084,319.6331,195.81,57.96507,44.3935
1061100,320.983,189.783,58.07354,43.4985
1061116,322.9117,182.5906,58.22741,42.39462
1061133,324.6551,176.5092,58.36534,41.42989
1061149,326.7415,169.8884,58.529,40.34598
1061166,328.6239,163.9298,58.67537,39.33972
1061183,330.5602,158.1487,58.82465,38.33495
1061200,332.5522,152.8435,58.97691,37.38769
1061216,334.7014,147.1547,59.13968,36.34464
1061234,336.7191,141.9337,59.29109,35.36213
1061250,339.1001,136.2857,59.46805,34.27163
1061266,341.3393,131.0913,59.6328,33.2431
1061286,343.974,125.8007,59.8246,32.17003
1061300,346.4339,120.9088,60.0017,31.15481
1061316,349.039,116.1661,60.18721,30.14933
1061332,352.0505,110.4833,60.39908,28.91698
1061349,354.9983,105.2538,60.60383,27.75645
1061366,358.0344,99.70959,60.81203,26.49846
1061383,361.13,93.96465,61.02156,25.16523
1061400,363.9883,88.54462,61.2126,23.88008
1061416,366.5916,83.76855,61.38461,22.72602
1061433,369.2308,78.92743,61.55708,21.53603
1061451,371.4022,75.09091,61.69754,20.57887
1061468,373.4189,71.62428,61.82688,19.70353
1061487,374.9884,68.98618,61.92678,19.0309
1061504,376.2826,66.37117,62.00867,18.35873
1061517,376.8388,64.42804,62.04373,17.85584
1061536,377.5994,62.12248,62.09154,17.25544
1061554,377.9173,60.31749,62.11147,16.78265
1061566,377.8114,58.56281,62.10484,16.32077
1061586,377.0551,57.25961,62.05733,15.97631
1061604,376.5196,55.61823,62.02361,15.54078
1061621,375.771,54.56488,61.97635,15.2603
1061633,374.875,54.07867,61.91958,15.13058
1061649,373.3981,53.94569,61.82555,15.09507
1061667,371.7354,54.03575,61.71899,15.11912
1061683,369.3463,54.65092,61.56458,15.28324
1061700,366.4946,55.36438,61.37823,15.47325
1061718,362.1789,56.75781,61.09193,15.84336
1061737,357.893,58.03174,60.80239,16.18055
1061750,352.9828,59.49977,60.46411,16.56768
1061770,346.8902,61.41579,60.03434,17.07062
1061787,341.0548,62.92126,59.61196,17.46391
1061801,333.9597,64.44669,59.08368,17.86068
1061817,324.1575,65.50055,58.32608,18.13376
1061833,313.8135,66.20721,57.48977,18.31641
1061850,301.4082,66.28235,56.43366,18.3358
1061867,289.5128,66.06984,55.36268,18.28093
1061884,277.8672,66.2522,54.25486,18.32802
1061901,265.381,67.37712,52.99709,18.61793
1061916,253.3041,68.79086,51.70662,18.98088
1061937,242.3786,70.39798,50.47208,19.39155
1061954,232.4575,72.72523,49.29221,19.98259
1061970,222.5554,75.08873,48.05547,20.57833
1061988,214.1582,78.0993,46.95792,21.33047
1062006,207.0009,80.47585,45.98545,21.91883
1062022,199.493,82.71887,44.92728,22.46971
1062036,192.6303,84.26248,43.92468,22.8463
1062051,185.275,86.04483,42.81125,23.27854
1062068,177.8907,87.60381,41.6516,23.65433
1062088,171.2226,89.26965,40.56726,24.05351
1062107,166.601,90.73802,39.79447,24.40333
1062122,162.4749,92.17686,39.08952,24.74424
1062139,158.4503,93.46986,38.38807,25.049
1062154,154.7165,94.6095,37.72491,25.31637
1062171,151.7146,95.9792,37.18297,25.63616
1062189,149.3806,97.54918,36.75617,26.00062
1062207,148.8694,99.44705,36.66203,26.43818
1062223,148.0111,101.6131,36.50349,26.93355
1062240,147.1638,103.6849,36.34633,27.40334
1062255,145.9428,105.7346,36.11875,27.86421
1062270,144.426,108.1285,35.83419,28.39755
1062289,143.7609,110.6584,35.70876,28.9554
1062305,142.8443,114.5665,35.53524,29.80549
1062324,141.5325,117.9997,35.28562,30.54055
1062340,139.973,120.7825,34.98683,31.12831
1062353,138.1124,124.3106,34.62748,31.86314
1062371,136.002,127.7752,34.21609,32.57354
1062389,132.9632,131.2299,33.6166,33.27087
1062408,129.4715,134.1591,32.9173,33.85353
1062422,125.7058,137.0598,32.15056,34.42281
1062438,121.6034,139.8672,31.30032,34.96648
1062455,116.6986,143.1354,30.26327,35.59042
1062471,110.7073,146.8364,28.96613,36.28544
1062489,105.3689,149.972,27.78225,36.86475
1062505,99.35543,153.1103,26.41714,37.43591
1062521,93.60455,156.0224,25.08066,37.95821
1062538,88.43549,158.9664,23.85393,38.47881
1062558,84.33006,162.3375,22.86274,39.06581
1062573,81.14134,165.7259,22.08273,39.64615
1062588,78.55167,169.4268,21.44283,40.26907
1062607,76.20943,172.2146,20.8592,40.73086
1062623,73.62586,174.9758,20.21014,41.182
1062640,71.47799,177.0316,19.66638,41.5139
1062655,69.46049,179.1062,19.15224,41.84543
1062671,67.45807,181.452,18.63875,42.21621
1062689,66.43382,183.4312,18.37489,42.52568
1062706,65.68292,185.8884,18.18094,42.90567
1062722,65.69284,188.54,18.1835,43.31055
1062740,65.67863,190.8612,18.17983,43.66061
1062756,65.68295,193.1909,18.18094,44.00787
1062773,66.45757,195.5433,18.38102,44.35446
1062790,67.58908,197.6298,18.67245,44.65847
1062807,68.84077,199.191,18.99366,44.88389
1062822,70.11522,200.3544,19.31945,45.05072
1062840,70.59182,201.2147,19.44095,45.17346
1062856,70.6552,202.1015,19.45709,45.29945
1062873,70.36459,203.3483,19.38304,45.47561
1062893,69.41782,204.1569,19.14133,45.58928
1062908,68.50381,204.7194,18.90731,45.66809
1062922,68.03047,205.2653,18.78586,45.74436
1062940,67.95854,205.5698,18.76739,45.78681
1062956,68.26836,205.8988,18.84692,45.8326
1062972,68.37506,206.17,18.87429,45.87029
1062990,69.01395,206.512,19.03801,45.91776
1063007,70.32949,206.556,19.37409,45.92385
1063022,72.23479,205.9801,19.8584,45.84391
1063041,74.87914,204.7558,20.52568,45.67319
1063057,76.68042,203.505,20.97693,45.49768
1063076,79.20604,201.779,21.60506,45.25369
1063093,82.17146,200.0575,22.33567,45.00824
1063108,85.89794,197.8035,23.24302,44.68364
1063124,90.38155,195.0371,24.31858,44.28022
1063143,93.76854,193.0582,25.11919,43.9882
1063157,96.75718,191.429,25.81704,43.74562
1063172,99.86967,189.9812,26.53517,43.52837
1063190,101.9721,188.749,27.01525,43.34224
1063206,103.0847,187.3884,27.26764,43.13537
1063222,102.6678,185.6989,27.1732,42.87654
1063242,102.0021,184.4752,27.02206,42.68769
1063258,100.8068,183.4577,26.74966,42.5298
1063273,100.4178,182.7149,26.66073,42.41403
1063290,100.7512,182.5399,26.73695,42.38668
1063307,101.8038,182.4794,26.97696,42.37722
1063328,103.594,182.9505,27.3828,42.4508
1063344,105.4842,183.5529,27.80812,42.54461
1063362,107.4158,184.3879,28.23932,42.67419
1063376,109.4309,186.1424,28.68547,42.94469
1063392,111.4036,188.1565,29.1186,43.25232
1063407,113.7141,190.6602,29.62128,43.63045
1063425,117.0859,194.7925,30.34597,44.24429
1063445,119.7933,198.4877,30.9202,44.78255
1063460,122.0759,202.1655,31.39903,45.30852
1063476,124.7132,206.5756,31.94626,45.92657
1063493,127.4869,211.0509,32.51485,46.53999
1063510,130.7092,215.8351,33.16646,47.18078
1063525,135.3105,222.2376,34.08041,48.01476
1063544,138.7911,226.9354,34.75893,48.61002
1063561,141.2416,230.9873,35.23005,49.1124
1063576,143.2885,234.8006,35.61943,49.57609
1063595,145.7469,238.469,36.08212,50.01399
1063610,149.383,241.9234,36.7566,50.41919
1063625,152.4424,244.6554,37.31509,50.73481
1063642,155.1857,247.2539,37.80891,51.03112
1063661,157.431,249.505,38.20823,51.28479
1063677,159.7031,251.7708,38.60791,51.53732
1063694,163.1152,254.3525,39.19987,51.82167
1063711,166.4039,256.44,39.76112,52.049
1063727,170.2088,257.9663,40.39925,52.21376
1063745,173.4285,259.0197,40.92995,52.32676
1063762,176.9637,259.9256,41.503,52.42348
1063779,180.2224,260.7348,42.0224,52.50953
1063794,184.6193,262.212,42.71,52.66573
1063811,190.0385,263.8352,43.53699,52.83609
1063827,195.1312,265.2085,44.29404,52.97919
1063842,199.8695,266.3654,44.9813,53.09901
1063861,204.2443,267.2599,45.60155,53.19119
1063877,208.2871,268.0533,46.16279,53.27264
1063894,212.884,268.8295,46.78733,53.35201
1063911,218.6272,269.7622,47.54774,53.447
1063926,224.5135,270.8924,48.30487,53.56153
1063945,230.235,272.0305,49.01989,53.67624
1063961,235.7868,272.9649,49.6946,53.76995
1063978,241.3171,273.9534,50.34857,53.86864
1063994,247.2431,275.1818,51.0299,53.99063
1064009,254.1626,276.8228,51.80087,54.15249
1064026,261.0913,278.575,52.54732,54.32394
1064044,267.6493,279.7831,53.23121,54.44132
1064061,273.4189,280.57,53.81533,54.51742
1064077,279.4395,281.2388,54.408,54.58187
1064093,286.3381,281.8773,55.06666,54.64321
1064110,292.1529,282.6616,55.60551,54.71831
1064126,298.8141,283.6613,56.20511,54.81363
1064143,305.0085,284.8592,56.74636,54.92726
1064160,310.4914,285.7214,57.21278,55.00865
1064176,316.3266,286.2648,57.69655,55.05978
1064193,321.5389,286.7866,58.11803,55.10875
1064210,326.8712,287.1409,58.53913,55.14193
1064227,331.9027,287.6636,58.92741,55.19079
1064243,336.7986,288.3079,59.29703,55.25084
1064258,341.8636,289.2211,59.67114,55.33566
1064275,346.8675,290.3534,60.03272,55.44032
1064292,351.5484,291.167,60.36395,55.51517
1064308,356.0753,292.0833,60.67799,55.59914
1064326,360.0459,292.9081,60.94849,55.67443
1064342,364.2367,293.9716,61.2291,55.77106
1064360,368.2701,294.6971,61.49451,55.83672
1064377,371.9431,295.1085,61.73234,55.87384
1064393,375.6676,295.182,61.96981,55.88047
1064410,379.4247,294.9488,62.20566,55.85944
1064428,382.279,294.8031,62.38242,55.84629
1064443,385.5883,294.356,62.58478,55.80587
1064471,388.401,294.0974,62.75462,55.78246
1064479,390.2115,294.0003,62.86293,55.77366
1064492,392.7818,293.6542,63.01532,55.74227
1064512,395.1259,293.4049,63.15294,55.71963
1064529,397.4214,293.2865,63.28644,55.70887
1064546,399.1035,293.161,63.38349,55.69745
1064561,400.7492,292.8989,63.47781,55.67359
1064578,402.3902,292.6331,63.57125,55.64936
1064594,404.0797,292.3204,63.6668,55.62082
1064611,405.617,291.8154,63.7532,55.57463
1064628,407.4097,291.1798,63.85329,55.51636
1064647,409.0971,290.6961,63.94685,55.47189
1064663,410.818,290.2291,64.04163,55.42885
1064680,412.4447,289.8851,64.13063,55.3971
1064695,414.2471,289.56,64.22858,55.36704
1064710,416.0646,289.172,64.32666,55.3311
1064727,417.7677,288.9706,64.41793,55.31243
1064744,419.3349,288.7394,64.50139,55.29097
1064762,420.6422,288.6169,64.57062,55.27958
1064778,421.696,288.5351,64.62617,55.27198
1064794,422.5132,288.3398,64.66909,55.25382
1064811,423.1523,288.0222,64.70257,55.22424
1064830,423.2729,287.4618,64.70887,55.17194
1064845,423.4035,286.875,64.7157,55.11703
1064862,423.2707,286.262,64.70876,55.05951
1064878,422.8936,285.4184,64.68903,54.98009
1064894,422.5344,284.5717,64.6702,54.90004
1064916,422.4555,284.0932,64.66606,54.85467
1064926,421.7454,283.318,64.62877,54.78095
1064945,421.1738,282.6348,64.59867,54.71575
1064962,420.586,282.2074,64.56765,54.67485
1064978,419.9486,281.6859,64.53393,54.62484
1064994,419.4534,281.3156,64.50768,54.58925
1065012,419.1005,280.8635,64.48894,54.54573
1065029,418.8041,280.4625,64.47318,54.50704
1065045,418.5264,279.9952,64.4584,54.46186
1065062,418.1707,279.6459,64.43945,54.42802
1065077,417.7523,279.3392,64.41711,54.39827
1065094,417.2884,278.8047,64.3923,54.34631
1065111,416.881,278.2947,64.37048,54.29661
1065131,416.3296,277.6049,64.3409,54.2292
1065150,415.7169,277.0726,64.30795,54.17702
1065166,415.0312,276.4922,64.27097,54.11999
1065179,414.2243,276.0329,64.22735,54.07474
1065195,412.8739,275.4155,64.15401,54.01376
1065214,411.455,274.8882,64.07655,53.96154
1065233,409.2495,274.1406,63.95527,53.88728
1065248,406.9263,273.3484,63.82637,53.8083
1065264,403.7208,272.3442,63.64656,53.70775
1065283,400.7693,271.4617,63.47896,53.61899
1065298,398.2607,270.9128,63.33495,53.56359
1065313,395.015,270.1819,63.14646,53.4896
1065334,392.0775,269.5018,62.97372,53.42052
1065349,389.5499,269.0332,62.82344,53.37279
1065364,387.3017,268.5531,62.68848,53.32378
1065381,385.3316,268.0452,62.56918,53.2718
1065398,383.6955,267.6302,62.46937,53.22924
1065413,382.3522,267.087,62.38693,53.17341
1065433,381.7084,266.5236,62.34725,53.11534
1065449,381.5321,265.96,62.33637,53.0571
1065464,381.6076,265.3315,62.34103,52.99196
1065482,382.3193,264.573,62.3849,52.91309
1065498,382.9977,263.7627,62.4266,52.82851
1065514,384.0119,262.8128,62.48873,52.72894
1065536,385.8388,261.8442,62.59998,52.62694
1065547,387.7918,260.7423,62.718,52.51032
1065565,389.8806,259.7236,62.8432,52.40195
1065580,392.2635,258.6464,62.98472,52.28678
1065599,394.3269,257.7336,63.10618,52.18871
1065615,396.3894,256.8239,63.22657,52.09054
1065629,398.7237,255.7932,63.36163,51.9788
1065649,400.5934,254.9419,63.46891,51.88609
1065664,402.6789,254.0331,63.58762,51.78668
1065680,404.8654,253.0254,63.71103,51.67595
1065699,406.3685,252.2793,63.79524,51.5936
1065711,408.1499,251.2352,63.8944,51.47787
1065729,409.8163,250.3203,63.98653,51.37598
1065746,411.5568,249.4083,64.08212,51.27394
1065763,413.2079,248.6646,64.17219,51.19041
1065779,414.8923,247.8269,64.26348,51.09595
1065797,416.3871,247.1647,64.34399,51.02101
1065814,417.996,246.5093,64.43012,50.9466
1065830,419.642,245.9123,64.51768,50.8786
1065848,421.2265,245.3873,64.60145,50.81866
1065865,422.5748,244.8658,64.67233,50.75894
1065882,423.996,244.3643,64.74663,50.70139
1065898,425.4318,243.8164,64.82129,50.63833
1065913,427.1182,243.2199,64.90845,50.5695
1065931,428.5622,242.7287,64.98264,50.51267
1065954,430.1992,241.9608,65.06625,50.42354
1065970,431.3987,241.3248,65.12717,50.34947
1065982,432.439,240.2725,65.17979,50.2264
1065998,433.2658,239.5449,65.22147,50.14094
1066012,434.2064,238.4654,65.26871,50.01357
1066030,435.1029,237.4309,65.31358,49.89088
1066048,435.774,236.5121,65.34708,49.78138
1066063,436.5089,235.3503,65.38365,49.64221
1066081,437.0529,234.2332,65.41068,49.50764
1066100,437.5417,233.2703,65.4349,49.39105
1066115,437.6356,232.2025,65.43954,49.26111
1066129,437.7766,231.0185,65.44652,49.11623
1066147,437.8482,229.656,65.45007,48.94844
1066162,437.6615,227.8803,65.44083,48.72807
1066181,437.2206,225.8689,65.41898,48.47609
1066199,436.9894,224.4925,65.40752,48.30221
1066212,436.5627,222.3754,65.38634,48.03241
1066228,436.2061,220.3664,65.3686,47.77376
1066245,435.6525,218.392,65.34102,47.51703
1066263,435.0782,216.8425,65.31235,47.31378
1066283,434.4516,215.1201,65.281,47.08599
1066298,433.8056,213.513,65.2486,46.87167
1066316,432.9077,211.8104,65.20343,46.64274
1066333,431.9333,210.461,65.15424,46.45992
1066345,430.989,209.0615,65.10639,46.26901
1066362,430.0066,207.692,65.05643,46.08088
1066380,429.156,206.3733,65.01302,45.89852
1066396,428.2774,204.7765,64.96803,45.67607
1066415,427.2093,202.7151,64.91314,45.38628
1066433,425.9039,200.5104,64.84574,45.07302
1066456,425.0668,199.1992,64.80235,44.88506
1066465,424.2525,197.7863,64.75999,44.68114
1066481,423.4466,196.3177,64.71795,44.46767
1066496,422.6834,194.6918,64.67802,44.22948
1066512,421.7087,192.8093,64.62684,43.95127
1066530,420.9381,191.2904,64.58624,43.72489
1066546,420.1076,189.6356,64.54235,43.47628
1066564,419.2989,187.9321,64.49948,43.2182
1066584,418.5281,186.0385,64.45849,42.92874
1066603,417.9746,184.6684,64.42898,42.71759
1066614,417.3715,183.3719,64.39675,42.51645
1066634,416.6699,182.2518,64.35917,42.34163
1066651,416.1744,181.4511,64.33256,42.21606
1066663,415.6301,180.685,64.30328,42.09545
1066680,415.2276,179.9837,64.28158,41.98463
1066696,414.9118,179.4195,64.26453,41.8952
1066713,414.6658,178.7103,64.25124,41.78243
1066730,414.4623,177.8656,64.24023,41.64759
1066749,414.2519,177.1974,64.22884,41.54053
1066766,414.1532,176.6375,64.2235,41.45055
1066783,414.0573,176.165,64.2183,41.3744
1066800,414.0375,175.7165,64.21722,41.30197
1066817,414.028,175.1566,64.21671,41.21133
1066830,414.0231,174.2443,64.21645,41.06308
1066852,414.0904,173.4695,64.22009,40.93666
1066866,414.2054,172.8106,64.22633,40.82875
1066884,414.344,172.4192,64.23383,40.7645
1066901,414.4582,172.3367,64.24001,40.75093
1066917,414.5019,172.2345,64.24237,40.73413
1066933,414.6067,172.0282,64.24804,40.70018
1066947,414.6808,171.7493,64.25204,40.65421
1066964,414.7676,171.3824,64.25674,40.59367
1066981,414.8256,170.8387,64.25987,40.50374
1066997,414.8659,170.3194,64.26205,40.41761
1067018,414.8043,169.6853,64.25872,40.31215
1067033,414.7462,168.9872,64.25558,40.19567
1067053,414.7275,168.3096,64.25457,40.08222
1067068,414.7145,167.5286,64.25387,39.95099
1067082,414.6287,166.586,64.24923,39.79193
1067102,414.5449,165.9141,64.2447,39.6781
1067121,414.4614,165.3976,64.24018,39.59034
1067134,414.3943,165.1221,64.23655,39.54344
1067153,414.3896,164.988,64.2363,39.52058
1067171,414.3002,164.7319,64.23146,39.47689
1067184,414.1655,164.3589,64.22417,39.41317
1067203,413.9906,163.8444,64.21468,39.32508
1067221,413.8544,163.1983,64.2073,39.21415
1067236,413.7427,162.6685,64.20124,39.12292
1067249,413.5916,161.9427,64.19304,38.99756
1067270,413.4798,161.4408,64.18697,38.9106
1067284,413.3458,160.881,64.17968,38.81337
1067301,413.2821,160.2525,64.17622,38.70389
1067319,413.2155,159.7423,64.1726,38.61477
1067333,413.2048,159.2875,64.17202,38.53513
1067349,413.3365,158.8848,64.17918,38.46447
1067370,413.4622,158.5027,64.18601,38.39731
1067383,413.4789,158.3548,64.18692,38.37126
1067401,413.5088,158.2947,64.18855,38.36069
1067416,413.5132,158.1946,64.18878,38.34304
1067431,413.5132,158.026,64.18877,38.31333
1067450,413.4703,157.7268,64.18645,38.26051
1067468,413.3104,157.3309,64.17776,38.19052
1067486,413.1788,156.7739,64.17061,38.09182
1067501,413.0085,156.1795,64.16134,37.98619
1067517,412.7404,155.5525,64.14674,37.87444
1067536,412.4377,155.0785,64.13024,37.78973
1067550,412.1274,154.8221,64.11331,37.74382
1067567,411.7762,154.6015,64.09412,37.70429
1067583,411.4436,154.356,64.07592,37.66024
1067601,411.0829,154.4456,64.05616,37.67633
1067617,410.7195,154.4599,64.03622,37.67889
1067633,410.3083,154.7923,64.01362,37.73849
1067651,409.8961,155.032,63.99093,37.7814
1067668,409.5268,155.3978,63.97057,37.84681
1067684,409.095,155.6971,63.94673,37.90024
1067702,408.6868,156.1152,63.92416,37.97475
1067720,408.42,156.3224,63.90938,38.01161
1067734,408.195,156.6315,63.8969,38.06654
1067763,408.0849,156.7537,63.8908,38.08823
1067773,408.0274,156.7494,63.88761,38.08747
1067784,407.8856,156.724,63.87973,38.08296
1067803,407.7019,156.7158,63.86953,38.08151
1067819,407.5493,156.6048,63.86105,38.0618
1067835,407.4565,156.2847,63.85589,38.00491
1067852,407.3568,156.048,63.85034,37.96278
1067868,407.2148,155.7376,63.84244,37.90747
1067885,407.0717,155.3362,63.83447,37.8358
1067904,406.965,155.0057,63.82853,37.77671
1067922,406.8197,154.7704,63.82042,37.73458
1067938,406.7982,154.671,63.81923,37.71675
1067952,406.7531,154.5475,63.81671,37.69461
1067968,406.7295,154.4675,63.81539,37.68025
1067987,406.7363,154.426,63.81578,37.6728
1068003,406.7771,154.411,63.81805,37.67011
1068020,406.7911,154.4635,63.81883,37.67953
1068035,406.8033,154.5369,63.81951,37.69271
1068051,406.8295,154.8625,63.82097,37.75106
1068070,406.8322,155.0754,63.82112,37.78918
1068086,406.8266,155.0035,63.82081,37.77632
1068102,406.7394,155.0163,63.81594,37.7786
