Time Stamp(ms),Intersection,,Angle,
,x,y,x,y
651664.5,331.1023,244.7468,58.86622,50.7453
651682.9,331.5677,244.4252,58.90183,50.70839
651698.2,331.9659,243.9451,58.93223,50.65316
651716.1,332.3378,243.6494,58.96058,50.61908
651732.1,332.74,243.3617,58.99119,50.58589
651749.3,332.9833,242.8414,59.00968,50.52572
651763.3,333.316,241.9009,59.03493,50.41657
651780.9,333.5535,241.125,59.05293,50.32616
651800.1,333.6943,240.4767,59.06359,50.25033
651816.2,333.8405,239.9723,59.07467,50.19118
651833.1,333.9942,239.5416,59.08629,50.14055
651855.4,334.039,239.025,59.08967,50.07968
651869,334.0034,238.2956,59.08699,49.99348
651883.2,334.0431,237.6904,59.08998,49.92171
651899.6,334.0976,237.4429,59.0941,49.89231
651924.8,334.2843,237.5414,59.1082,49.90402
651941.1,334.3604,237.7434,59.11395,49.92801
651950.1,334.4425,237.8377,59.12015,49.9392
651964.4,334.4343,238.0886,59.11953,49.96895
651982.4,334.3531,238.4478,59.1134,50.01149
651999.5,334.2336,239.0309,59.10438,50.08038
652016.6,334.0161,239.7604,59.08794,50.16629
652033.4,333.6357,240.0337,59.05915,50.19839
652050.1,333.2047,240.0285,59.02648,50.19778
652068.3,332.7596,239.8791,58.99268,50.18023
652083.1,332.1834,239.38,58.94882,50.12152
652100.9,331.6607,238.7703,58.90893,50.04962
652119.4,331.23,238.1564,58.876,49.97698
652132.6,330.6725,237.3636,58.83327,49.88287
652149.1,330.2155,236.7114,58.79817,49.80518
652167.9,329.8167,236.0211,58.76748,49.72266
652184.2,329.3804,235.4788,58.73385,49.65764
652201.1,328.8712,234.9023,58.6945,49.58833
652218.1,328.3549,234.3606,58.65453,49.52303
652233,327.6889,233.6333,58.60283,49.43508
652250.3,326.9581,232.7981,58.54591,49.33368
652268.6,326.3017,232.0842,58.49463,49.24667
652285.1,325.59,231.453,58.43887,49.1695
652300.4,324.7378,230.9099,58.37185,49.1029
652318.8,323.9922,230.6168,58.31302,49.06688
652333.6,323.2022,230.4312,58.25046,49.04405
652349.5,322.0663,230.4517,58.16013,49.04657
652365.6,320.9321,230.569,58.06947,49.061
652384,319.7582,230.7855,57.97515,49.08762
652398.8,318.4469,231.2793,57.8692,49.14822
652415.5,317.1681,231.729,57.76527,49.20328
652434.6,316.0656,232.0693,57.67519,49.24486
652448.8,314.851,232.4351,57.57543,49.28948
652465.8,313.8821,232.8523,57.49545,49.34027
652484,313.1411,233.2824,57.43405,49.39252
652498.5,312.4533,233.8982,57.37687,49.46715
652514.8,311.8504,234.6928,57.3266,49.5631
652533.8,311.3845,235.4966,57.28766,49.65979
652550.1,310.9952,236.4958,57.25507,49.77943
652568.3,310.8386,237.5335,57.24193,49.90308
652584.2,310.5986,238.5798,57.22179,50.0271
652601.8,310.5847,239.2505,57.22063,50.10627
652615.6,310.658,240.0186,57.22678,50.19661
652634.4,310.7532,240.8279,57.23477,50.29143
652649.9,310.9399,241.5826,57.25042,50.37952
652665.6,311.2678,242.6003,57.27789,50.49779
652682.9,311.6027,243.538,57.30591,50.60623
652698.6,312.0575,244.7624,57.34388,50.74709
652717.4,312.4756,245.886,57.37872,50.87561
652732.9,312.9265,247.057,57.41623,51.0088
652749.1,313.378,248.2382,57.4537,51.14238
652764.4,313.8837,249.2625,57.49558,51.2576
652781.1,314.2998,250.2531,57.52997,51.36847
652797.4,314.7209,251.3685,57.5647,51.49267
652815.3,315.1059,252.2775,57.59641,51.5934
652830.6,315.5013,253.168,57.62891,51.69165
652847.3,315.8668,254.061,57.6589,51.78973
652865.2,316.1807,254.7836,57.68461,51.8688
652881,316.508,255.5476,57.71139,51.95209
652902.7,316.6734,256.0939,57.72491,52.01146
652915.1,316.8527,256.5744,57.73954,52.06355
652930.6,316.9808,257.0911,57.75,52.11942
652948.3,317.1427,257.6619,57.7632,52.18099
652965.2,317.2748,258.2125,57.77396,52.24022
652981.6,317.3689,258.8786,57.78163,52.31165
652998,317.4844,259.5703,57.79103,52.3856
653014.8,317.6129,260.3703,57.80149,52.47081
653031.7,317.7821,260.9963,57.81524,52.53726
653048.1,317.933,261.5065,57.82751,52.59126
653065.6,318.0189,261.8776,57.83448,52.63047
653082.3,318.1086,262.2225,57.84176,52.66684
653099.9,318.1679,262.4597,57.84658,52.69181
653115.3,318.2672,262.7826,57.85463,52.72577
653132.1,318.3455,263.121,57.86098,52.76129
653148.6,318.3883,263.4153,57.86445,52.79215
653166.4,318.3706,263.6724,57.86301,52.81907
653182.6,318.2678,263.9268,57.85468,52.84566
653201.8,318.0584,264.2265,57.83769,52.87696
653219.3,317.7919,264.4378,57.81604,52.89899
653234.9,317.2867,264.6761,57.77493,52.92382
653251.4,316.7398,264.9411,57.73033,52.9514
653265.6,315.9013,265.1418,57.66172,52.97227
653282,315.007,265.3376,57.58827,52.9926
653300.2,313.9981,265.4445,57.50504,53.00368
653316.7,312.6819,265.4287,57.39589,53.00205
653331.4,311.1611,265.475,57.26896,53.00685
653352,309.5899,265.3563,57.1369,52.99454
653368.1,307.5599,265.3613,56.96487,52.99505
653384.1,305.569,265.2876,56.79458,52.9874
653402.6,303.7378,265.2045,56.63659,52.97878
653416.1,301.536,265.1895,56.44485,52.97722
653433.9,299.3148,265.0788,56.24944,52.96571
653452,297.4925,264.9503,56.08762,52.95236
653465.5,295.3755,264.7947,55.8979,52.93618
653482.8,293.2892,264.5895,55.70911,52.91481
653500.6,291.3869,264.3043,55.53536,52.88508
653516.7,289.5384,263.9615,55.36504,52.84929
653532,287.5392,263.6284,55.17917,52.81446
653548.9,285.5713,263.4438,54.9945,52.79514
653566.5,283.8647,263.3851,54.83297,52.78899
653582.3,281.9128,263.4048,54.64662,52.79105
653599.6,279.9132,263.4393,54.45392,52.79467
653619.8,278.0229,263.5515,54.27008,52.80641
653633.3,276.0266,263.7385,54.07412,52.82597
653649.8,274.2025,264.0265,53.89344,52.85608
653665.8,272.1368,264.5425,53.68693,52.90991
653684.1,270.0294,265.0981,53.47413,52.96772
653704.7,268.0155,265.7688,53.26876,53.0373
653720.1,265.7814,266.9194,53.0386,53.15615
653738.2,263.6492,268.2357,52.81664,53.29132
653754.1,261.1195,270.4433,52.55031,53.51609
653769.1,258.3824,273.0367,52.25846,53.77714
653786.5,255.3043,276.4097,51.9256,54.11187
653804.6,251.9994,281.1155,51.56263,54.57
653821.3,248.7645,286.0165,51.20164,55.03643
653838.6,246.2263,290.8308,50.91439,55.48428
653853.4,243.2214,296.9595,50.56967,56.04003
653869.3,240.4035,302.1413,50.24175,56.49775
653886.9,237.8861,306.3212,49.94495,56.8591
653902.5,235.3919,309.4503,49.64721,57.12512
653920,233.2543,311.6983,49.38912,57.3139
653936,231.2843,313.4569,49.14882,57.46024
653952.1,229.491,314.5269,48.92804,57.54871
653971,227.7778,315.3873,48.7153,57.61954
653987.7,225.9794,316.5786,48.49001,57.71716
654003.4,224.1449,317.8969,48.25811,57.82458
654021.7,222.7465,318.9037,48.07991,57.90618
654035.1,221.39,320.0265,47.90587,57.99675
654051.8,220.0004,320.9563,47.72637,58.07141
654069.4,218.6256,321.6755,47.54753,58.12894
654086.1,217.4479,322.3603,47.39338,58.18355
654103.6,216.5017,322.8755,47.26886,58.22453
654120.2,215.9799,323.1434,47.19994,58.2458
654137.9,215.3514,323.3279,47.11669,58.26043
654153.3,214.7601,323.201,47.03812,58.25037
654169.3,214.4996,322.233,47.00344,58.17341
654184.8,214.2236,321.083,46.96665,58.08156
654202.4,214.2451,319.3201,46.96951,57.93982
654219.1,214.1355,317.7559,46.9549,57.81311
654235.4,213.9513,315.5756,46.93029,57.63501
654252,213.4823,312.9484,46.86756,57.41804
654267.9,212.9427,310.2079,46.79522,57.18895
654284.3,212.3942,307.2202,46.72146,56.93592
654303.7,211.9385,303.3577,46.66005,56.60363
654317.9,211.7318,299.5813,46.63213,56.27299
654333.8,211.7952,294.6378,46.64069,55.83135
654350.8,211.8871,289.9388,46.6531,55.40206
654367.9,212.1017,285.2125,46.68205,54.96065
654384.5,212.6504,279.6396,46.75594,54.42741
654401.3,213.2086,273.986,46.83089,53.87189
654417.5,213.9596,267.6082,46.9314,53.22698
654435.1,215.0934,260.7683,47.08244,52.51308
654451.3,216.2691,253.7928,47.23816,51.76032
654470.3,217.3669,245.8306,47.38274,50.86929
654487.4,217.9259,238.1325,47.45605,49.97416
654503.8,218.3512,231.6877,47.51171,49.19822
654517.4,218.936,225.7599,47.58802,48.46236
654534.2,219.6339,220.8058,47.67881,47.83056
654550.9,220.6722,217.1646,47.81331,47.35616
654568.5,221.8817,213.4417,47.96909,46.86212
654585.3,223.3837,209.5886,48.16126,46.34106
654604.4,225.209,206.602,48.39287,45.93023
654621.8,227.0844,203.3113,48.62866,45.47041
654637.3,229.1549,200.0889,48.88645,45.01273
654652.8,231.9363,197.0342,49.22861,44.57202
654668,234.5019,193.9478,49.54008,44.11983
654683.9,237.6457,190.6666,49.91641,43.63141
654704.1,240.4727,187.9269,50.24987,43.21741
654718.9,243.4715,185.001,50.59856,42.76898
654734.7,246.6416,182.0274,50.96164,42.30649
654751.4,249.6447,178.5028,51.30044,41.74936
654770.3,252.4994,175.2268,51.61792,41.2227
654786.2,255.7498,172.1383,51.97409,40.7183
654803.4,259.2547,168.9769,52.35189,40.19395
654823,261.6857,166.6181,52.6102,39.79736
654835.2,264.2697,164.1834,52.88147,39.38315
654851.1,267.1389,161.8617,53.17875,38.98354
654868.4,270.1092,159.6913,53.48222,38.60585
654888.1,272.8497,157.9029,53.75842,38.2916
654904.4,275.3963,156.47,54.01186,38.03785
654920.1,278.1094,154.8111,54.27852,37.74186
654936.4,280.6292,153.3191,54.52313,37.47361
654952.1,283.2835,151.9482,54.77766,37.22543
654969.1,286.0677,150.411,55.04125,36.94518
654986.4,288.4289,148.9718,55.26211,36.68092
655002.4,291.0254,147.5398,55.50217,36.41616
655019.6,293.1813,146.5143,55.6993,36.22544
655035.1,295.6461,145.4953,55.92226,36.03501
655052.8,298.0952,144.696,56.14129,35.88499
655070.4,300.1402,144.0707,56.32229,35.76722
655085.8,302.0536,143.5934,56.4901,35.6771
655102.9,304.0715,142.791,56.66548,35.52512
655123.4,305.6354,142.0975,56.80029,35.39331
655139.8,306.8931,141.3909,56.90801,35.25858
655154.8,308.1714,140.5202,57.01685,35.09191
655172.3,309.3641,139.3817,57.11784,34.87296
655190.5,310.4106,138.341,57.206,34.67181
655206.6,311.4042,137.4718,57.28931,34.50303
655225.1,312.4911,136.7151,57.38001,34.35556
655238.7,313.529,136.0942,57.46622,34.23416
655256.1,314.4883,135.515,57.54553,34.12059
655272.1,315.4619,134.715,57.62567,33.96323
655290.3,316.2819,134.0266,57.69289,33.82734
655305.8,317.0963,133.3025,57.75942,33.68395
655323.6,317.8593,132.5722,57.82152,33.53885
655340.5,318.5515,131.7954,57.87768,33.38397
655357.4,319.1458,131.0074,57.92574,33.22628
655380.9,319.8347,130.0157,57.98131,33.02703
655393.9,320.2021,129.3958,58.01088,32.90203
655405.5,320.681,128.4413,58.04933,32.70885
655424.4,321.0827,127.5542,58.08153,32.52856
655440.1,321.4905,126.5369,58.11416,32.3209
655458.6,321.8214,125.607,58.14059,32.13026
655472.8,322.2927,124.4122,58.17817,31.88412
655489.8,322.7088,123.399,58.21128,31.67438
655505.7,323.0389,122.583,58.23751,31.50475
655523.8,323.302,121.849,58.25837,31.35166
655540.3,323.6079,121.2488,58.28262,31.22608
655557.9,323.9144,120.7789,58.30687,31.12754
655579.6,324.2948,120.1258,58.33692,30.99025
655591.4,324.6204,119.6949,58.3626,30.89944
655605.8,324.9525,119.219,58.38876,30.79896
655622.7,325.256,118.6733,58.41264,30.68346
655640.9,325.6322,118.1691,58.44218,30.57653
655658.4,326.032,117.7579,58.47352,30.48914
655673.6,326.4368,117.36,58.5052,30.40441
655690.7,326.7932,117.0535,58.53304,30.33905
655705.7,327.0824,116.8376,58.5556,30.29297
655722.8,327.3915,116.6124,58.57969,30.24483
655740.9,327.7761,116.6396,58.6096,30.25064
655757.6,328.1377,116.6319,58.63768,30.24901
655772.8,328.5607,116.5133,58.67048,30.22365
655789.7,328.9728,116.552,58.70236,30.23192
655806.1,329.3604,116.5001,58.7323,30.22083
655823.8,329.7268,116.7459,58.76056,30.27337
655839.9,330.1193,117.0676,58.79078,30.34206
655856.4,330.5209,117.1243,58.82164,30.35416
655874.8,330.9431,117.317,58.85403,30.39524
655889.6,331.3342,117.4574,58.88397,30.42516
655905.1,331.9415,117.6893,58.93037,30.47453
655932.6,332.3339,117.9488,58.96029,30.52972
655944.2,332.6595,118.1158,58.98507,30.5652
655956.1,333.1494,118.3991,59.02229,30.62534
655969.6,333.7141,118.9597,59.06509,30.74412
655988.9,334.3545,119.3555,59.11351,30.82781
656005.8,335.2552,120.0303,59.18137,30.97014
656022.3,336.4139,120.6784,59.26827,31.10644
656041.3,337.533,121.1718,59.35179,31.20996
656056.8,338.9435,121.8012,59.45647,31.34166
656073.4,340.3456,122.6087,59.55989,31.5101
656088.3,341.9351,123.4533,59.67636,31.68565
656105.6,343.7867,124.4716,59.81103,31.89639
656123.1,345.6926,125.3464,59.94853,32.07669
656139.2,347.7377,125.9789,60.09481,32.20661
656155.9,349.8293,126.5448,60.24307,32.32252
656174.9,352.0616,127.0114,60.39986,32.41788
656191.3,354.0896,127.4093,60.54099,32.49903
656204.9,356.175,127.8942,60.68484,32.59774
656224.3,358.5283,128.6373,60.84565,32.74858
656238.6,360.8299,129.2597,61.00137,32.87453
656255.6,363.0432,129.7911,61.14969,32.98178
656272.6,365.4499,130.3141,61.30941,33.08708
656288.3,367.8973,130.8344,61.47017,33.19158
656310.6,370.5383,131.3141,61.64181,33.28772
656324.2,373.6447,132.0277,61.84129,33.43034
656340.6,376.6508,132.7794,62.03188,33.58006
656355.9,379.6306,133.3361,62.21849,33.69062
656373.9,383.0715,133.886,62.43113,33.79953
656391.9,386.5225,134.539,62.6414,33.92853
656408,389.7068,135.1855,62.83282,34.05584
656422.9,392.9565,135.8788,63.02563,34.19194
656440,396.665,136.366,63.24258,34.28734
656457.4,399.9397,136.9298,63.43149,34.39746
656472.5,403.5207,137.3943,63.63526,34.48796
656490.3,407.0844,138.0584,63.83518,34.617
656506.1,410.7826,138.8151,64.03968,34.76357
656523.1,414.0859,139.6723,64.21985,34.92896
656541.3,417.6606,140.7269,64.41221,35.13153
656556.3,421.2888,141.6182,64.60473,35.30196
656574.2,425.2726,142.6729,64.81303,35.5027
656590.3,428.836,143.5775,64.99665,35.67409
656606.2,432.5327,144.7028,65.18452,35.88626
656623.5,436.6775,146.0205,65.39204,36.13327
656640.2,440.1612,147.4228,65.56395,36.39445
656656.5,444.0717,148.9655,65.75426,36.67976
656672.6,448.3029,150.4929,65.95706,36.96017
656690.2,452.2386,151.6085,66.14285,37.16367
656707.4,456.2621,152.7416,66.33002,37.36927
656724.1,460.0981,154.0162,66.5059,37.59919
656743.3,463.9814,155.2603,66.68146,37.82224
656757.7,467.8098,155.6137,66.85212,37.88537
656774.4,471.7088,156.0637,67.02352,37.96558
656790.6,475.1122,156.329,67.17118,38.01279
656807.4,478.1617,156.8954,67.30197,38.11336
656824.1,481.0217,157.5495,67.42336,38.22919
656839.9,484.0714,158.285,67.55144,38.35898
656857.9,487.256,159.2278,67.68372,38.52465
656877.2,489.3045,160.0881,67.76804,38.6752
656891.6,491.8982,161.2856,67.87392,38.88368
656907.3,494.45,162.4829,67.97717,39.0909
656924.4,497.0449,163.774,68.08122,39.31303
656952.6,499.7496,165.4347,68.18869,39.59666
656964.4,501.2627,166.4691,68.24837,39.77215
656975,502.9669,168.2639,68.31523,40.07455
656990.7,504.776,170.1671,68.38577,40.39232
657006.9,506.4033,172.2231,68.44884,40.73224
657024.2,508.1744,174.1725,68.51711,41.05138
657041.9,509.9172,176.1024,68.58387,41.3643
657059.1,511.3683,177.9083,68.63916,41.65442
657077.2,512.5634,179.8042,68.68449,41.95621
657092.8,513.6672,182.2684,68.72619,42.34423
657109.3,514.8672,184.8943,68.77135,42.7525
657125.9,516.0956,187.4837,68.8174,43.14991
657142.7,517.6569,190.3825,68.87565,43.58873
657163.1,518.9131,192.6785,68.92229,43.93184
657179.6,519.7375,194.7103,68.9528,44.2322
657194,520.3474,197.7142,68.9753,44.6707
657212.3,520.6037,202.6609,68.98476,45.37862
657236.5,520.7109,205.2291,68.9887,45.73931
657248.7,520.5716,208.11,68.98357,46.13844
657260.9,520.5051,211.2113,68.98112,46.56173
657275.8,520.3221,214.3696,68.97437,46.98612
657293.4,519.8394,218.0338,68.95656,47.47018
657310.5,519.4688,222.0504,68.94286,47.99075
657327.6,518.9871,226.0792,68.92503,48.50255
657343.4,518.7523,229.7914,68.91633,48.96518
657360.3,518.5848,232.3782,68.91012,49.28255
657375.8,518.5773,234.6047,68.90984,49.55248
657393,518.7623,236.1947,68.9167,49.74344
657409.1,519.202,236.8704,68.93299,49.82414
657426,519.9937,237.2671,68.96226,49.87139
657442.7,521.215,237.9088,69.00726,49.94763
657461,522.6176,239.0009,69.0587,50.07684
657478.3,523.0596,240.718,69.07487,50.27858
657492.4,523.0038,243.044,69.07282,50.54916
657509.4,522.2695,245.9805,69.04596,50.88638
657526.4,521.7034,248.2511,69.0252,51.14384
657541.9,521.2186,250.5332,69.00739,51.39972
657558.9,520.8713,252.0052,68.99461,51.56327
657575.4,520.5908,253.3364,68.98428,51.71017
657592.8,520.2722,254.404,68.97253,51.8273
657609.1,519.7753,255.6195,68.95419,51.95992
657626.7,518.89,256.778,68.92143,52.08558
657645.6,517.9726,257.8166,68.88739,52.19765
657662.9,517.2171,258.555,68.85927,52.27698
657679.3,516.68,259.3397,68.83924,52.36098
657693.9,516.1933,260.2831,68.82105,52.46154
657710.9,515.4546,261.4697,68.7934,52.58738
657727.6,514.5391,262.8362,68.75903,52.7314
657744.1,513.616,264.1432,68.72427,52.86827
657760.1,512.6881,265.3156,68.68921,52.99031
657777,511.7808,266.2286,68.65482,53.08488
657793.3,510.8155,266.9762,68.61813,53.162
657810.6,509.9359,267.5002,68.58458,53.2159
657831.2,509.3564,267.8075,68.56242,53.24744
657844.1,509.2303,267.8386,68.5576,53.25063
657860.8,509.1452,267.5417,68.55434,53.22016
657877.8,509.0107,267.0826,68.54919,53.17295
657894.1,508.8221,266.4852,68.54196,53.11138
657911.1,508.5741,266.1389,68.53245,53.0756
657927.4,508.2084,265.7809,68.51841,53.03856
657943.4,507.8123,265.3397,68.50318,52.99281
657960.4,507.3292,264.9498,68.48458,52.95231
657976.8,506.7787,264.4781,68.46335,52.90319
657993.8,505.9357,263.7823,68.43076,52.83057
658010.6,505.1103,263.0392,68.39876,52.75272
658028.4,504.0332,262.0584,68.35686,52.64954
658043.8,502.8312,261.2579,68.30992,52.56496
658061.4,501.3745,260.3931,68.25278,52.47323
658077.9,499.1536,259.2276,68.1651,52.34899
658093.1,496.8942,257.8991,68.07521,52.20652
658112.7,494.1286,256.2668,67.96422,52.03022
658127.3,491.586,254.4843,67.86123,51.83609
658143.6,488.9187,252.4936,67.7522,51.61728
658160.4,485.3641,249.9521,67.60532,51.33483
658178.6,482.3104,248.0248,67.47765,51.11831
658193.8,478.6928,245.9365,67.32461,50.88137
658212.6,475.3878,243.9981,67.18306,50.65927
658227.8,471.9472,241.882,67.03393,50.41438
658246.1,467.982,239.5242,66.85974,50.1385
658260.8,464.3494,237.4638,66.69796,49.89479
658277.3,460.8056,235.4799,66.53807,49.65778
658295.6,456.8928,233.2324,66.35911,49.38645
658311.5,453.3171,231.1449,66.1933,49.13173
658329.9,449.3374,229.2037,66.00616,48.8925
658344.5,445.4962,227.4528,65.8229,48.67473
658361.3,441.4754,225.8753,65.62822,48.4769
658379.1,437.8579,224.5185,65.45054,48.3055
658394.5,433.8015,222.9861,65.24839,48.11053
658411.3,429.5158,221.4518,65.0314,47.91382
658427.9,424.9063,220.0976,64.79401,47.73896
658444.8,420.6094,218.7132,64.56889,47.55897
658463.7,416.5745,217.6411,64.35405,47.41872
658478,412.8598,216.5577,64.15325,47.27625
658496.5,409.0078,215.3422,63.94191,47.11547
658513.2,405.3061,214.403,63.73577,46.99057
658527.9,401.477,213.3588,63.51932,46.85103
658547.8,398.1806,212.3563,63.33033,46.71636
658562.8,394.9435,211.2618,63.14228,46.56857
658579.4,392.2632,210.3297,62.9847,46.44207
658593.8,389.1449,209.5836,62.79922,46.34039
658611.6,386.0755,209.0068,62.61434,46.26152
658629.5,383.5528,208.6425,62.46064,46.21158
658645.1,380.9668,208.1779,62.30142,46.14777
658661.8,378.5419,207.3708,62.15058,46.03658
658678.9,376.2809,206.3408,62.00856,45.894
658696.6,373.7693,204.838,61.84924,45.68468
658714.1,371.8535,203.4356,61.72659,45.48791
658727.9,370.0642,201.6892,61.61114,45.24094
658746.6,368.4018,200.0321,61.50311,45.0046
658763.8,366.9541,198.4896,61.40841,44.78283
658779.4,365.6055,196.9702,61.31968,44.56271
658795.2,364.1762,195.8228,61.22508,44.39537
658811.8,362.6389,194.8021,61.1227,44.24569
658828.9,360.9241,194.3884,61.00771,44.18482
658846.1,359.3111,194.1669,60.89878,44.15216
658864.3,357.6156,194.2046,60.78347,44.15773
658879.3,355.9736,194.0462,60.67101,44.13436
658896.5,354.0415,193.862,60.53765,44.10716
658914,351.8891,193.7587,60.38779,44.0919
658932.6,349.602,193.4959,60.22702,44.05304
658948.4,347.2488,193.1767,60.05996,44.00576
658964.7,345.1146,192.8497,59.90695,43.95726
658981.6,342.9765,192.259,59.75224,43.86945
658997.5,340.8489,191.5316,59.59686,43.76094
659013.8,338.568,190.8539,59.42867,43.6595
659030.4,336.1761,190.0007,59.25048,43.5313
659047.9,333.9712,189.3384,59.08455,43.43141
659064.9,331.7487,188.7565,58.91565,43.34338
659082.1,329.6675,188.1863,58.75599,43.25686
659097.8,327.539,187.5721,58.59116,43.16338
659113.5,325.2164,186.8748,58.40952,43.05692
659129.6,322.5486,186.0499,58.19854,42.93048
659147.5,320.2737,185.4087,58.01663,42.83186
