Time Stamp(ms),Intersection,,Angle,
,x,y,x,y
953389.4,329.0424,227.6316,58.70775,48.69706
953406.5,328.7869,230.2549,58.68799,49.02234
953424.8,328.2377,233.076,58.64544,49.36746
953440.3,327.5692,236.5157,58.59351,49.78181
953457.7,326.9631,239.9125,58.5463,50.18416
953473.1,326.4139,242.2368,58.50341,50.45561
953491.8,325.8247,243.5308,58.45727,50.60541
953508.6,324.9085,243.6542,58.3853,50.61964
953523.7,324.0168,243.5409,58.31496,50.60656
953541.3,323.2144,242.7916,58.25143,50.51995
953557.6,322.6883,242.3076,58.20964,50.46383
953573.2,322.1848,241.9483,58.16957,50.42208
953590.4,321.6763,241.3852,58.12901,50.35651
953606.9,321.1394,240.7644,58.08607,50.284
953622.4,320.6409,240.2238,58.04612,50.22068
953640,320.3204,239.8034,58.02039,50.17134
953656.8,320.119,239.4286,58.00419,50.12725
953673.4,319.9918,239.3508,57.99396,50.11808
953689.8,319.9813,239.5951,57.99311,50.14684
953705.6,320.1351,240.2727,58.00549,50.22642
953722.8,320.5543,241.6082,58.03917,50.3825
953739.6,320.9041,242.8879,58.06722,50.5311
953758.8,321.2259,244.3434,58.093,50.69898
953773.1,321.5214,246.0287,58.11663,50.89188
953789.9,321.745,247.4451,58.13449,51.05278
953807.7,321.9668,248.6147,58.15219,51.1848
953826.9,322.0686,248.9881,58.16031,51.22679
953842.1,322.2277,249.3878,58.17299,51.27165
953858.1,322.4811,249.9053,58.19316,51.32961
953873.6,323.0163,250.7013,58.23571,51.41846
953890.8,323.814,251.6266,58.29893,51.52132
953907.3,324.4568,252.5578,58.3497,51.62437
953923.4,324.9946,253.3697,58.39207,51.71384
953940.4,325.288,254.0372,58.41515,51.78712
953957.9,325.3602,254.3991,58.42082,51.82676
953973.1,325.3127,254.6135,58.41708,51.85021
953990.3,324.9604,254.7681,58.38938,51.86711
954006.3,324.5519,255.1367,58.3572,51.90734
954023.6,324.0161,255.4235,58.3149,51.93859
954040.3,323.1982,255.6558,58.25014,51.96386
954056.6,322.4809,255.7648,58.19315,51.97572
954073.1,321.3506,255.9582,58.10298,51.99673
954090.2,320.2858,256.1039,58.0176,52.01254
954106.5,319.0618,256.1194,57.91896,52.01423
954122.3,317.5862,255.8593,57.79931,51.98598
954140.6,316.2758,255.5385,57.6924,51.9511
954156.1,314.8281,255.1688,57.57354,51.91084
954171.9,312.7977,254.614,57.40552,51.85026
954193.4,310.6642,254.1969,57.22729,51.80463
954209.1,307.7356,253.8188,56.97981,51.76318
954223.3,304.7731,253.3678,56.72608,51.71363
954243.3,300.7741,252.914,56.37805,51.66367
954260,296.8128,252.4648,56.02691,51.61409
954274.2,292.1632,252.0872,55.60645,51.57235
954288.8,285.7897,251.4712,55.01508,51.50408
954309.2,278.5906,250.8112,54.32546,51.4307
954323.8,271.8251,250.5197,53.65558,51.39822
954339.8,263.6999,250.4231,52.82194,51.38744
954361.1,255.7998,250.6738,51.97952,51.41539
954376.9,247.1861,251.0473,51.02344,51.45697
954391.9,236.0181,251.7031,49.72231,51.5298
954410.7,226.1573,252.531,48.51238,51.62141
954425.8,214.2022,253.3518,46.9638,51.71187
954443.3,201.9402,254.1571,45.27656,51.80027
954461.3,189.5663,254.7409,43.46582,51.86414
954477.3,175.1264,255.4002,41.20643,51.93604
954493.9,159.2914,256.4408,38.53581,52.04908
954511.3,141.6218,257.8234,35.30265,52.19838
954527.4,125.1024,258.5694,32.02647,52.27853
954544,108.0257,259.4347,28.37474,52.37112
954560.8,90.12546,260.5129,24.25763,52.48596
954578.5,74.62495,261.6549,20.46179,52.60695
954593.4,57.76585,263.1287,16.11026,52.7621
954612.3,45.18849,264.0835,12.73177,52.86204
954626.9,34.1475,265.8943,9.68911,53.0503
954643.9,30.90372,268.2801,8.783795,53.29586
954661.8,27.49179,270.6039,7.826767,53.53236
954679.6,30.30431,272.4701,8.616007,53.72038
954694.4,37.68585,274.3284,10.67108,53.90596
954713.2,44.04626,275.6641,12.42006,54.03833
954731.8,50.77388,276.3649,14.24471,54.10746
954746,58.43206,276.7767,16.28627,54.14797
954759.9,63.65559,277.4377,17.65512,54.21283
954774.9,69.10662,278.6667,19.06173,54.33287
954794,73.0071,280.1177,20.05388,54.47371
954810,77.81533,282.4358,21.25985,54.69672
954826.7,83.42713,284.5886,22.64276,54.90165
954843.3,90.46297,286.1827,24.33795,55.05206
954862.4,99.17705,286.9689,26.37613,55.12583
954876.5,108.2502,287.3667,28.42451,55.16306
954895,117.6434,287.5701,30.46477,55.18206
954913,127.155,287.2854,32.44719,55.15545
954929.6,135.51,287.0134,34.11961,55.12999
954945.8,143.2841,286.7386,35.61859,55.10424
954964.1,151.1418,286.6548,37.07867,55.0964
954978.5,158.8017,286.6024,38.44986,55.09148
954993.9,169.4616,286.925,40.27487,55.12172
955015.8,175.989,286.9674,41.34599,55.12569
955032.3,184.2429,287.2357,42.65171,55.15081
955044.9,192.252,287.4973,43.86841,55.17525
955061.8,200.1833,288.0138,45.02625,55.22345
955076.6,210.535,289.0936,46.46999,55.32384
955095.3,219.8355,289.7651,47.70498,55.38601
955111.6,230.7651,290.4826,49.08511,55.45222
955132.1,240.6308,291.1303,50.26838,55.5118
955145.3,250.6993,291.9345,51.41824,55.58554
955162.8,261.2769,292.8259,52.56698,55.66694
955181.8,269.9144,293.4266,53.46245,55.7216
955199.5,279.2836,293.909,54.39287,55.76539
955212.8,288.9281,294.2193,55.30848,55.7935
955230.4,296.5987,294.2585,56.00775,55.79706
955246.8,304.8899,294.2187,56.73615,55.79345
955263.8,312.6143,294.2284,57.39027,55.79433
955279.8,319.862,294.5754,57.98351,55.82572
955296.8,328.118,295.5896,58.63615,55.91718
955314.8,335.9421,296.883,59.23294,56.03319
955331.8,343.3092,298.1666,59.77641,56.14764
955345,350.6476,300.0321,60.30072,56.31276
955363.1,357.6841,302.3842,60.78815,56.51894
955383.4,364.2348,304.0607,61.22897,56.66454
955395.6,370.919,305.4977,61.6664,56.78845
955410.6,379.0829,307.2544,62.18436,56.93883
955434.1,386.1757,308.912,62.62041,57.07963
955448.9,392.2089,310.3489,62.98149,57.20081
955463,399.0987,312.2949,63.38321,57.36367
955481.4,405.1353,314.2807,63.72618,57.52839
955499.5,410.8359,316.2801,64.04261,57.69275
955513.9,416.7021,318.3145,64.36089,57.85846
955529.8,422.2414,319.9642,64.65483,57.99174
955545.9,426.8105,321.2294,64.89259,58.09327
955562.1,430.8707,322.5157,65.10039,58.19592
955579.5,434.5273,323.5247,65.28479,58.27603
955594.9,437.8903,324.5572,65.45214,58.35762
955611.3,440.7666,325.0859,65.5936,58.39925
955628.1,443.3745,325.3685,65.72054,58.42147
955644.2,445.7523,325.3816,65.8352,58.4225
955661,447.2575,324.9664,65.90725,58.38985
955678.2,449.0107,324.7645,65.99068,58.37395
955694.8,450.1157,324.3457,66.04298,58.34093
955712.5,450.9278,323.9929,66.08128,58.31307
955728.6,450.9724,323.3339,66.08337,58.2609
955746.4,450.9286,322.3964,66.08131,58.18642
955765.4,450.4129,321.1201,66.05701,58.08453
955782.3,450.1772,319.8715,66.04588,57.98427
955800.4,449.6792,318.7364,66.02235,57.89265
955812.4,448.9895,317.4949,65.98967,57.79189
955828.6,447.9276,316.0196,65.93921,57.67142
955846,446.9177,314.5703,65.89102,57.55229
955861.9,445.5072,312.8778,65.82343,57.41218
955883.7,444.3369,311.3937,65.76707,57.28843
955895.2,443.0771,309.6198,65.70612,57.13942
955911.8,441.4224,307.4017,65.62563,56.95139
955928.4,439.8515,305.1022,65.54876,56.75443
955945.1,437.7934,302.3514,65.44735,56.51609
955965.9,435.9206,299.2809,65.35439,56.24644
955983.6,433.8548,295.6415,65.25107,55.92184
955999.6,431.4121,291.152,65.12785,55.5138
956012.3,428.5833,286.4858,64.98372,55.08053
956029.6,425.5886,282.0377,64.82941,54.65859
956046.8,421.9482,276.5173,64.63943,54.12246
956063.3,418.5242,271.1193,64.45828,53.58445
956079.8,415.1543,265.5828,64.27763,53.01803
956096.4,411.605,259.9853,64.08475,52.42984
956112.6,408.3007,255.0628,63.90277,51.89927
956129.2,405.2771,250.415,63.73414,51.38654
956146.1,402.6688,245.9671,63.58705,50.88486
956162.6,400.4836,241.4014,63.46263,50.35839
956182.1,398.761,237.534,63.36378,49.90313
956199,397.5042,234.4396,63.29123,49.53257
956214.9,396.6852,231.6246,63.24376,49.19051
956233.1,396.0755,229.2121,63.20831,48.89354
956250.8,395.953,227.2342,63.20118,48.6474
956266.9,396.5643,226.1131,63.23674,48.50682
956292.8,397.3889,225.7069,63.28456,48.45569
956309.6,398.8608,226.5428,63.36953,48.56079
956334.8,401.8568,228.8357,63.54094,48.84689
956353.7,404.8414,230.8044,63.70967,49.08994
956366.1,406.5454,231.5211,63.80512,49.17784
956378.7,408.2138,231.9767,63.89795,49.23354
956387.3,410.1151,231.9845,64.00299,49.2345
956401.5,412.0613,231.7369,64.1097,49.20424
956417.5,413.4065,231.3427,64.18298,49.15599
956433,413.8427,230.96,64.20667,49.10905
956449.7,413.9633,230.864,64.2132,49.09726
956466.9,413.6396,230.9444,64.19564,49.10713
956482.9,412.4618,231.1835,64.13156,49.13647
956501.6,411.2755,231.3761,64.06672,49.16008
956517.4,409.6135,231.4967,63.97536,49.17485
956533.5,406.9705,231.5735,63.82883,49.18425
956551.8,403.9547,231.7558,63.65976,49.20655
956565.9,401.0201,231.9687,63.49327,49.23257
956583.9,397.8274,232.1779,63.30993,49.25812
956599.9,394.4466,232.5477,63.11319,49.3032
956615.1,389.8457,233.1813,62.84111,49.38026
956632.7,385.4279,233.7667,62.57503,49.45124
956648.7,380.1842,234.6627,62.2529,49.55947
956665.4,375.3765,235.5553,61.95138,49.66683
956683.8,370.4967,236.8169,61.63912,49.81776
956701.6,365.6377,238.8144,61.3218,50.05482
956716.4,361.179,240.8287,61.02486,50.29153
956732.3,356.2442,243.0862,60.68959,50.55404
956754.4,351.9219,244.3392,60.39009,50.6985
956770.1,348.2153,244.6274,60.12878,50.7316
956783.5,344.4541,244.068,59.85931,50.66731
956803.8,341.2268,243.6404,59.62456,50.61805
956818.8,338.3486,243.0508,59.4124,50.54995
956834.9,335.3509,242.5332,59.18856,50.49001
956853.2,332.6571,241.8447,58.98489,50.41003
956867.8,330.1729,241.1953,58.7949,50.33435
956883.6,327.5738,240.7662,58.59387,50.28421
956902.5,325.3448,240.5877,58.41961,50.26332
956918.7,323.8099,240.6172,58.2986,50.26678
956935.1,321.8682,240.5988,58.14433,50.26463
956953.2,320.3267,240.5591,58.02089,50.25998
956967.3,318.8584,240.5771,57.90252,50.26208
956984.7,317.6106,240.7884,57.8013,50.28681
957001.2,316.5272,240.9007,57.71296,50.29995
957018.3,315.6458,240.8636,57.64077,50.2956
957033.1,315.1943,240.5959,57.60368,50.26429
957053.8,314.3233,240.3891,57.53191,50.24007
957069,313.3191,240.6643,57.44881,50.2723
957085.5,312.3634,241.6392,57.36938,50.38611
957101.9,311.6117,243.2957,57.30666,50.57826
957121.7,311.0166,244.6141,57.25685,50.73007
957134.4,310.7477,246.505,57.2343,50.94611
957150.1,310.4726,247.7549,57.2112,51.08781
957170.1,310.3532,248.1913,57.20117,51.13708
957184.3,310.4511,248.1989,57.2094,51.13795
957200.9,310.639,247.7651,57.22519,51.08897
957220.1,310.9234,247.6528,57.24905,51.07627
957234.8,311.3103,247.524,57.28146,51.06171
957249.8,311.7718,247.534,57.32003,51.06284
957269.3,312.213,247.6384,57.35685,51.07465
957285.6,312.6069,247.7623,57.38966,51.08865
957303.4,313.0791,248.2477,57.4289,51.14346
957320.9,313.4649,248.4586,57.4609,51.16722
957337.6,313.8308,248.8772,57.49121,51.21432
957353.5,314.2468,249.0338,57.52559,51.23192
957369.5,314.6408,249.3655,57.55811,51.26914
957388.8,315.1515,249.9068,57.60016,51.32977
957412.3,315.4485,250.4289,57.62457,51.38809
957430.4,315.6941,250.7882,57.64473,51.42814
957442.3,315.7247,250.7261,57.64725,51.42123
957452.2,315.8634,250.3387,57.65862,51.37802
957468.1,316.0589,250.1824,57.67464,51.36057
957485.7,316.2035,249.9894,57.68648,51.33901
957504.3,316.2753,249.9284,57.69236,51.33219
957521.3,316.1447,249.9532,57.68167,51.33496
957538.9,315.9421,249.8304,57.66507,51.32122
957554.6,315.625,249.6832,57.63906,51.30475
957570.3,314.8892,249.3129,57.57857,51.26324
957587.5,314.2743,249.2282,57.52787,51.25375
957604,312.9993,248.6644,57.42228,51.19038
957620.6,311.6891,248.2098,57.31313,51.13918
957638.1,310.3982,247.864,57.20496,51.10014
957653.5,308.7085,247.4921,57.0624,51.05809
957672.9,307.2414,247.4165,56.93772,51.04954
957689.6,305.8002,247.5671,56.81444,51.06659
957705.2,304.0321,247.5146,56.66208,51.06064
957722.9,302.6014,247.9536,56.53787,51.11026
957739.9,301.1568,248.5428,56.41163,51.1767
957754.7,299.7324,249.0226,56.28633,51.23066
957770.9,298.2562,249.4809,56.1556,51.28208
957787.4,296.6203,250.1268,56.00968,51.35436
957804.5,294.9888,250.7632,55.86305,51.42536
957821.6,293.2317,251.4057,55.70388,51.4968
957839,291.468,251.8763,55.5428,51.549
957855.6,289.4357,252.3245,55.35554,51.59859
957873.3,287.4242,252.5975,55.16843,51.62875
957888.5,285.4143,252.8755,54.97969,51.65942
957908.3,283.3226,253.0813,54.78139,51.68209
957921.4,281.244,253.2612,54.58237,51.7019
957940.5,279.197,253.6596,54.38446,51.74569
957955,277.3843,253.9828,54.20759,51.78116
957971,275.2448,254.3218,53.99688,51.81831
957988.1,273.3755,254.7442,53.811,51.8645
958006.3,271.3403,254.965,53.60675,51.8886
958023.4,269.195,255.3073,53.38929,51.92593
958044.3,267.7085,255.6387,53.23728,51.962
958056.4,266.1614,255.8972,53.07793,51.9901
958072.3,264.2766,256.51,52.88219,52.05657
958088.9,261.9043,256.8681,52.63329,52.09533
958105.7,259.6281,257.3514,52.39177,52.14753
958122.2,257.4216,258.075,52.15509,52.22544
958138.9,255.4645,258.6815,51.94305,52.29055
958157.6,253.6731,259.3411,51.74717,52.36113
958173.6,252.037,260.3458,51.56679,52.4682
958188.1,250.0247,261.1772,51.34295,52.55642
958206.2,248.4257,261.9979,51.16351,52.64315
958221.9,246.897,262.638,50.99065,52.71057
958238.7,245.6895,263.2406,50.85318,52.77384
958255,244.7862,263.7674,50.74982,52.82901
958272.1,243.9265,263.9655,50.65102,52.84971
958290.5,243.1421,264.4404,50.56051,52.89927
958307.7,242.6267,264.9628,50.50085,52.95366
958324.8,242.0276,265.2364,50.43131,52.98208
958340.5,241.7343,265.634,50.39718,53.02333
958357.3,241.3666,265.7628,50.35435,53.03668
958376.4,241.1687,266.0388,50.33125,53.06526
958391.6,240.9057,265.9911,50.30053,53.06032
958405.9,240.7337,266.1556,50.28042,53.07734
958424.2,240.6,266.0861,50.26477,53.07014
958438.6,240.3571,265.9626,50.23632,53.05737
958455.7,239.9837,265.9631,50.19251,53.05742
958471.8,239.7515,266.1506,50.16523,53.07682
958488.6,239.837,266.5194,50.17528,53.11491
958504.9,239.8439,266.6335,50.1761,53.12669
958521.7,239.9064,266.7831,50.18343,53.1421
958538.4,240.0719,266.9648,50.20287,53.16083
958554.7,240.2383,266.9872,50.22239,53.16314
958571.4,240.4701,266.9942,50.24956,53.16386
958587.9,240.5919,267.0788,50.26382,53.17257
958604.8,240.6295,266.9786,50.26823,53.16225
958621.9,240.9149,267.0339,50.30161,53.16795
958639.3,241.1327,266.864,50.32705,53.15044
958653.7,241.718,266.5919,50.39529,53.12239
958671.8,242.3128,266.4407,50.46444,53.10678
958688.3,242.9097,266.3818,50.53362,53.10071
958705.2,243.6607,266.5258,50.62038,53.11557
958721.8,244.2953,266.5769,50.69346,53.12084
958738.4,244.8134,266.5586,50.75294,53.11895
958754.4,245.3474,266.5609,50.81409,53.11919
958774.1,245.7468,266.5542,50.85973,53.1185
958787.8,246.2912,266.6478,50.92178,53.12815
958804.4,246.8755,266.5127,50.9882,53.11422
958821,247.3881,266.1231,51.04632,53.07397
958840.1,247.8261,265.9313,51.09586,53.05413
958855.2,248.2514,265.6492,51.14387,53.02491
958871,248.8078,265.4496,51.20652,53.00422
958888.4,249.5576,265.1995,51.29068,52.97825
958910.1,250.1995,264.7747,51.36249,52.93409
958922.4,250.9427,264.3268,51.44534,52.88742
958946.1,251.728,263.7059,51.53257,52.82257
958959.2,252.3812,263.2563,51.60486,52.77549
958974.6,252.9722,262.6556,51.67008,52.71242
958990.6,253.4009,262.2145,51.71727,52.666
959006.8,253.7823,261.9209,51.75917,52.63504
959023.4,254.1274,261.6043,51.79701,52.6016
959041.9,254.2865,261.4246,51.81444,52.58261
959057.6,254.3306,261.4523,51.81927,52.58554
959073.9,254.5723,261.4147,51.84571,52.58156
959089.3,254.9285,261.2664,51.88462,52.56587
959106,255.3234,261.1139,51.92768,52.54972
959123.6,255.8564,260.8557,51.98567,52.52235
959140.4,256.275,260.7924,52.03111,52.51563
959156.7,256.7604,260.6998,52.08368,52.50581
959173.8,257.1902,260.6673,52.13013,52.50236
959189.1,257.5324,260.7839,52.16705,52.51473
959205.8,257.8245,260.8736,52.19849,52.52425
959222.4,258.1768,260.7498,52.23638,52.51112
959239.6,258.4938,260.4212,52.27041,52.47622
959255.1,258.7638,259.9308,52.29936,52.42404
959274.9,259.0149,259.5706,52.32624,52.38564
959292.4,259.1595,259.3343,52.34172,52.3604
959309.4,259.5196,259.3322,52.38019,52.36017
959325.8,259.8431,259.2658,52.4147,52.35308
959340.5,260.3137,259.2609,52.46479,52.35255
959359.8,260.7189,259.1732,52.50784,52.34318
959374.3,261.1859,259.2054,52.55734,52.34662
959390.6,261.621,259.188,52.60336,52.34476
959408.1,262.0605,259.2789,52.64976,52.35448
959426.1,262.4851,259.3306,52.69448,52.36
959441.4,262.9511,259.5797,52.74346,52.3866
959458.6,263.3561,259.7065,52.78594,52.40012
959475.4,263.7497,259.6099,52.82715,52.38983
959493.6,264.0797,259.5967,52.86164,52.38842
959511.9,264.3832,259.6091,52.89331,52.38974
959527.4,264.6974,259.6567,52.92604,52.39481
959543,265.0019,259.7763,52.95772,52.40757
959560.9,265.139,259.8539,52.97197,52.41585
959582.3,265.3558,259.9701,52.99448,52.42822
959597.3,265.4587,260.0134,53.00517,52.43283
959609.8,265.7172,260.1579,53.03196,52.44822
959626.6,265.9211,260.0998,53.05308,52.44204
959645,266.0886,260.0069,53.0704,52.43214
959661.2,266.2762,259.8739,53.08979,52.41798
959676.9,266.3897,259.8202,53.10152,52.41225
959693.4,266.5025,259.9151,53.11317,52.42236
959711.7,266.6502,260.1809,53.1284,52.45066
959730.1,266.9068,260.4317,53.15486,52.47734
959745.1,267.2485,260.5777,53.19003,52.49285
959762.1,267.6766,260.5276,53.23401,52.48753
959782.2,267.9725,260.4375,53.26436,52.47795
959795.9,268.207,260.456,53.28838,52.47992
959809.1,268.4951,260.5208,53.31785,52.4868
959826.7,268.8818,260.7038,53.35734,52.50623
959843.7,269.3289,260.9135,53.40292,52.52848
959862.8,269.7169,261.027,53.44239,52.54052
959876.9,270.1214,260.8957,53.48346,52.52659
959892.8,270.5518,260.7845,53.52708,52.5148
959910.4,270.9164,260.7559,53.56395,52.51176
959927.9,271.2723,260.7932,53.59989,52.51572
959948.3,271.5007,260.9159,53.62292,52.52873
959960.8,271.9659,261.1589,53.66975,52.55448
959978.3,272.3963,261.3659,53.71298,52.57639
959993.6,272.7885,261.5588,53.7523,52.5968
960010.5,273.1951,261.8165,53.79298,52.62402
960026.8,273.5714,261.9445,53.83056,52.63753
960043.4,274.0266,262.0354,53.87593,52.64711
960060.9,274.6349,262.0837,53.93641,52.6522
960077.9,275.1469,262.0917,53.98718,52.65305
960092.9,275.8368,262.1395,54.0554,52.65808
960112,276.5825,262.2293,54.12888,52.66755
960128.3,277.5171,262.4795,54.2206,52.69389
960144.5,278.6367,262.734,54.32996,52.72066
960166.3,279.3406,262.9622,54.3984,52.74463
960178.3,280.5728,263.2116,54.51769,52.7708
960198.7,281.8657,263.2951,54.64209,52.77956
960214.4,283.0499,263.4187,54.75539,52.7925
960228.8,284.3879,263.5547,54.88263,52.80675
960245,285.7656,263.7264,55.01281,52.82471
960263.4,287.2907,263.8625,55.15595,52.83895
960279.5,288.6933,264.1021,55.28668,52.86398
960296,290.2742,264.3768,55.43302,52.89264
960314.2,291.9718,264.6881,55.58894,52.92508
960329.8,293.477,265.0458,55.72618,52.96229
960346.8,294.9856,265.5137,55.86276,53.01087
960362.7,296.4131,265.7769,55.99112,53.03814
960378.2,297.759,265.8468,56.11137,53.04538
960395.1,299.2457,265.7321,56.24333,53.0335
960416.3,300.4461,265.6704,56.34922,53.02711
960430.8,301.647,265.5938,56.45456,53.01917
960444.6,303.0336,265.711,56.57547,53.03131
960462.2,304.4016,265.9766,56.69402,53.05882
960478.9,305.744,266.2915,56.80961,53.09138
960494.7,307.474,266.7621,56.95755,53.13994
960515.3,309.0378,267.1966,57.09027,53.18469
960530.4,310.5573,267.4724,57.21833,53.21304
960546.1,312.4455,267.649,57.37622,53.23117
960564.3,314.1895,267.8346,57.52086,53.25022
960581,315.8307,268.0144,57.65594,53.26865
960595.8,317.479,268.2498,57.7906,53.29276
960612.9,319.3047,268.5887,57.93858,53.32742
960628.9,320.9795,268.9641,58.07326,53.36574
960645.6,322.464,269.088,58.19181,53.37838
960661.8,323.9093,269.2067,58.30646,53.39047
960678.8,325.2371,269.2811,58.41115,53.39806
960695,326.4832,269.3692,58.50882,53.40702
960711.1,327.7285,269.5547,58.6059,53.4259
960728.3,328.8905,269.6243,58.696,53.43298
960744.7,330.0089,269.7258,58.78228,53.44329
960762.7,331.0553,269.8178,58.86262,53.45264
960779.4,331.8958,269.92,58.92689,53.46302
960794.4,332.8849,270.1269,59.0022,53.48402
960815.6,333.8037,270.2477,59.07187,53.49627
960828.8,334.6336,270.3618,59.13456,53.50784
960847.7,335.4723,270.4429,59.19768,53.51605
960865.6,336.0982,270.6403,59.24464,53.53604
