Time Stamp(ms),Intersection,,Angle,
,x,y,x,y
514657.7,315.759,236.2569,57.65006,49.75089
514675.5,315.6422,235.4249,57.64047,49.65117
514692,315.5222,234.6157,57.63062,49.55381
514710,315.3743,233.829,57.61847,49.45877
514725.7,315.1581,233.3039,57.6007,49.39513
514743.6,315.1336,233.1379,57.59869,49.37498
514760.3,315.3494,233.0795,57.61643,49.36789
514775,315.8327,233.0306,57.6561,49.36194
514791.4,316.2586,232.9754,57.69099,49.35524
514808.5,316.5607,232.8515,57.7157,49.34017
514825.1,316.785,232.5186,57.73402,49.29965
514843,317.0405,232.0416,57.75487,49.24148
514858.8,317.3909,231.4449,57.78342,49.1685
514875,317.6405,230.9077,57.80373,49.10263
514892.3,317.7469,230.3556,57.81239,49.03473
514909.7,317.8618,229.8039,57.82173,48.96671
514925.3,317.8977,229.1804,57.82464,48.88961
514941.8,317.9933,228.4241,57.8324,48.79576
514959.1,318.0664,228.0688,57.83834,48.75155
514974.5,318.1362,227.9445,57.844,48.73608
514994.6,318.0287,228.0707,57.83528,48.7518
515008.8,317.7545,228.1562,57.813,48.76244
515028.2,317.1996,228.4209,57.76784,48.79537
515042.7,316.3325,228.9907,57.69703,48.86611
515060,315.4883,229.5996,57.62784,48.94147
515077,314.3862,229.7585,57.5371,48.9611
515093,313.17,229.6436,57.43645,48.94691
515110.4,311.7628,229.3725,57.31929,48.91338
515125.7,309.8666,228.7872,57.16022,48.84087
515142.9,307.9647,228.3664,56.99929,48.78859
515160.3,305.3972,227.7367,56.77982,48.71016
515176.5,302.596,226.9211,56.5374,48.60823
515193.9,299.3609,226.0562,56.25352,48.49966
515210.4,294.9702,225.1009,55.86137,48.37922
515227.4,290.6209,224.1995,55.46496,48.26505
515243.3,285.8267,222.9719,55.01857,48.10873
515260.4,279.4273,220.8373,54.40682,47.83462
515278.7,273.9709,218.848,53.87039,47.57655
515291.6,266.6243,216.1449,53.12573,47.22176
515312.3,259.9612,213.8992,52.42728,46.92334
515327.8,253.0371,211.7578,51.67723,46.63565
515343.8,245.2984,209.6653,50.80848,46.35154
515363.2,237.3706,207.7446,49.8837,46.08813
515378.3,230.3254,206.2905,49.03102,45.88703
515393.1,222.1425,204.0108,48.00257,45.56878
515415,216.3318,201.7443,47.24644,45.24877
515426.6,210.084,199.0963,46.40863,44.87027
515443.1,204.0843,196.8732,45.57911,44.5486
515461.3,198.8928,195.0299,44.84097,44.27916
515476.7,194.8014,193.2712,44.24559,44.01977
515491.9,189.684,190.9436,43.48358,43.67295
515511.1,186.4194,189.1353,42.98719,43.40071
515526.5,184.3512,187.4686,42.6685,43.1476
515542.6,182.1049,185.7144,42.31864,42.87893
515560.6,181.7831,184.4985,42.26819,42.6913
515577.6,181.7548,183.3307,42.26374,42.51004
515593.4,182.9205,181.8091,42.44611,42.27227
515610.7,183.9489,180.1255,42.60612,42.00707
515629,185.4828,178.4462,42.84328,41.74034
515645.2,188.2027,176.833,43.25935,41.48199
515666.1,191.6486,175.2674,43.77843,41.22928
515680.4,194.9696,173.9333,44.27031,41.01239
515695,198.7438,172.7328,44.8195,40.81599
515712.1,203.0878,171.2188,45.4389,40.56662
515727.3,207.8056,169.6565,46.09653,40.30735
515744.1,213.5092,167.8934,46.87117,40.01234
515761.7,218.6748,166.3171,47.55396,39.74641
515778.3,224.5084,164.6151,48.30423,39.45697
515795.1,230.5243,162.9783,49.0555,39.1763
515815.4,236.3004,161.4528,49.75608,38.91269
515834.2,242.8142,159.6786,50.52257,38.60362
515847.9,247.589,158.3852,51.06906,38.37662
515863.7,253.193,157.2619,51.6944,38.17831
515879,258.7487,156.376,52.29774,38.02115
515897.4,264.5025,155.4674,52.90574,37.85924
515914,269.4908,154.5281,53.4194,37.69113
515930.2,274.7848,153.3004,53.95129,37.47023
515945.8,279.4957,152.0035,54.41346,37.23547
515962.2,284.8261,150.6099,54.92413,36.98156
515980.3,290.1415,149.327,55.42077,36.7463
516000.4,294.3331,148.2736,55.8038,36.55206
516013.7,298.9195,147.0011,56.21445,36.31609
516029.6,303.8857,145.6319,56.6494,36.0606
516046.6,308.2532,144.5186,57.0238,35.85162
516062.8,312.8143,143.5575,57.4069,35.67032
516079.8,317.1087,142.754,57.76043,35.5181
516096.4,321.4121,141.6252,58.10789,35.30331
516114.3,325.7446,140.4477,58.451,35.078
516131.1,329.7985,139.4864,58.76608,34.89315
516149.5,333.1006,138.9483,59.01859,34.78931
516165.2,336.3339,138.5911,59.26228,34.72023
516180.6,339.5844,138.5826,59.50382,34.71858
516198.6,342.5503,138.4988,59.72123,34.70237
516215,347.0732,137.8583,60.04742,34.57817
516243.7,350.1864,137.3107,60.26826,34.47168
516259.2,352.4745,137.0806,60.42869,34.42686
516269.3,354.1334,136.8775,60.54402,34.38726
516279.8,356.2913,136.8422,60.69283,34.38036
516295.2,358.9559,136.6936,60.87469,34.35137
516314.3,361.39,136.7109,61.03904,34.35474
516332.6,363.3822,136.859,61.17229,34.38364
516348.4,365.3647,136.9934,61.30378,34.40985
516362.7,367.3357,137.0978,61.43343,34.43022
516380.6,368.8871,137.4861,61.53472,34.50583
516396.4,370.6094,138.0251,61.6464,34.61055
516412.7,372.5011,138.649,61.76815,34.73144
516430.2,374.497,139.6719,61.89557,34.92889
516446.8,376.2716,140.6646,62.00797,35.11959
516464,378.2216,141.8303,62.13054,35.34241
516481.6,380.0092,142.6893,62.24203,35.50583
516499.3,381.6314,143.479,62.3425,35.65547
516516.4,383.1921,144.3873,62.43853,35.8269
516539.8,384.6187,145.6215,62.52577,36.05864
516550.5,385.6022,146.519,62.58562,36.22632
516564.1,387.006,148.089,62.67063,36.51792
516580.5,388.323,149.7661,62.74994,36.82698
516596.5,389.6443,151.4523,62.82909,37.13525
516615.3,391.2815,153.3577,62.92657,37.48058
516632.8,392.6607,155.0161,63.00818,37.77857
516645.6,394.1982,156.4468,63.09863,38.03372
516663,395.8599,157.6543,63.19576,38.2477
516681.1,397.3455,158.8781,63.28204,38.46329
516696,398.9733,160.3445,63.376,38.71994
516712.9,401.0185,162.1101,63.49319,39.02652
516730.8,402.9612,163.5656,63.60361,39.27726
516746.3,405.293,165.0315,63.73503,39.528
516763.8,407.3893,166.6366,63.85215,39.80049
516779.5,409.5695,168.6209,63.97293,40.13439
516796,412.0296,171.2854,64.10797,40.57765
516813.4,414.4099,173.401,64.2374,40.92545
516829.6,417.4423,175.5848,64.40054,41.28068
516849.4,419.6955,177.0706,64.52052,41.52016
516863.6,422.0947,178.4261,64.64713,41.73712
516880.2,424.1451,179.5494,64.7544,41.91582
516895.9,426.318,180.6889,64.86716,42.09607
516913.4,428.9483,181.3754,65.0024,42.20415
516931.5,431.8236,181.5383,65.14869,42.22977
516949,435.1432,181.2071,65.3156,42.1777
516964.2,439.0663,180.5676,65.51016,42.07692
516981.8,441.8911,180.5374,65.64848,42.07215
516997.7,444.3907,181.4006,65.76966,42.20811
517014.6,446.506,182.7625,65.87133,42.42145
517032.8,448.2437,184.9194,65.95425,42.75639
517049.9,449.9326,186.632,66.03432,43.01976
517067,451.4814,188.359,66.10732,43.28308
517083.7,452.8353,190.1585,66.17079,43.55506
517099.8,453.7684,192.077,66.21435,43.84233
517118.5,454.6659,193.7557,66.2561,44.09146
517131,455.3152,195.8381,66.28622,44.39761
517148.3,455.8574,197.6609,66.31132,44.66298
517164.9,456.2116,199.5517,66.32769,44.93572
517181.5,456.2718,201.4129,66.33047,45.20166
517197.2,456.3109,203.3416,66.33227,45.47467
517213.7,456.002,205.0033,66.318,45.70778
517231.2,455.7777,206.0892,66.30763,45.85907
517250.4,455.7685,206.2504,66.30721,45.88147
517267.3,456.6177,205.0944,66.34643,45.7205
517281.9,457.8562,203.9631,66.40341,45.56209
517300.5,458.9851,202.928,66.45512,45.41635
517327.5,459.9468,202.8271,66.49902,45.40211
517349.3,460.7811,203.5087,66.53696,45.4982
517361.5,461.1178,204.2659,66.55224,45.60457
517370.9,461.3318,204.8455,66.56194,45.68572
517381.5,461.3341,206.3655,66.56205,45.89743
517399.8,461.3898,207.6733,66.56458,46.07831
517416.3,461.4198,208.9068,66.56593,46.24781
517433.7,461.2878,210.3389,66.55995,46.44332
517450.4,461.0831,211.8896,66.55067,46.65344
517468.4,460.6146,213.5043,66.5294,46.87052
517484.5,459.5315,215.6347,66.48008,47.15424
517502.7,458.4025,217.6225,66.42846,47.41629
517520.9,456.9791,219.5626,66.36308,47.66954
517535.3,454.6943,221.9059,66.25742,47.9722
517552.4,451.3544,224.398,66.10135,48.29023
517569.2,447.7516,226.7874,65.93082,48.59148
517585.2,443.0157,229.4229,65.70315,48.91962
517603.7,436.4326,231.6778,65.37986,49.19701
517619.7,428.9136,233.5616,65.00063,49.42638
517635.9,419.3965,235.1267,64.50466,49.61534
517651.6,406.6916,236.2524,63.81328,49.75034
517668.3,395.9509,237.2205,63.20106,49.86585
517684,384.3878,238.3056,62.51169,49.99466
517702.3,374.6216,239.8131,61.90348,50.17248
517720.4,364.8994,241.8694,61.27301,50.41291
517738.7,356.9899,243.759,60.74071,50.63173
517753.7,347.3279,246.9856,60.0656,51.00071
517769.2,337.3766,250.4455,59.34014,51.38995
517785.7,327.5634,253.4395,58.59307,51.72152
517804.9,318.959,255.9703,57.91065,51.99804
517820.1,310.8964,258.1837,57.24678,52.23713
517833.7,301.8828,260.2545,56.47517,52.45849
517851.4,292.7481,262.3656,55.65985,52.68191
517870.5,284.8792,264.1796,54.92915,52.87206
517885.9,275.5661,266.6198,54.02865,53.12527
517906.3,268.7195,268.5677,53.34078,53.32526
517920.7,260.6276,270.6403,52.49814,53.53604
517937.9,253.3467,272.2047,51.71131,53.69374
517953.4,246.1235,273.5516,50.90268,53.82858
517969.7,238.8708,275.4532,50.06149,54.01749
517989.1,233.1607,278.1517,49.37775,54.28265
518004.5,228.1753,280.8131,48.76481,54.54087
518020,223.4642,283.3046,48.17152,54.77967
518036.2,217.8637,285.9505,47.44791,55.03022
518052.3,213.9617,287.7107,46.93169,55.19518
518069.1,210.0218,289.3387,46.40015,55.34655
518086.6,205.7543,290.6911,45.8125,55.47142
518102.2,201.1477,292.2782,45.16393,55.61696
518118.3,196.6811,293.79,44.52064,55.7546
518134.1,191.9669,295.3367,43.82593,55.89441
518150.6,188.3037,296.3551,43.27469,55.98592
518167.5,185.6143,296.6728,42.86353,56.01439
518183.8,183.2697,296.942,42.50055,56.03847
518201.3,181.106,297.3267,42.16178,56.07283
518219.4,179.8739,297.3076,41.96725,56.07112
518235.2,179.2778,296.889,41.8727,56.03373
518251.5,178.3176,296.7853,41.71981,56.02445
518267.9,177.8665,296.4096,41.64773,55.99081
518284,177.3668,296.0441,41.5677,55.95802
518300.7,177.5163,295.6559,41.59166,55.92313
518318.5,177.6019,295.5806,41.60538,55.91637
518334.3,177.5932,295.8196,41.60399,55.93786
518350.5,177.4042,296.5258,41.5737,56.00122
518368.2,177.1771,297.2297,41.53727,56.06417
518384.3,177.0875,298.185,41.52289,56.14927
518401.5,177.4773,299.396,41.58542,56.25662
518419.9,178.0129,300.369,41.67114,56.34243
518434,178.4151,301.4216,41.73537,56.43483
518453.4,178.4968,302.3011,41.74841,56.5117
518468.7,178.321,303.1837,41.72035,56.58852
518484.5,178.129,303.8155,41.6897,56.64332
518500.6,178.1017,304.0776,41.68534,56.666
518518.3,178.2738,304.1995,41.71281,56.67655
518534.9,178.8412,303.9496,41.80328,56.65493
518552.4,179.3572,303.9275,41.88531,56.65302
518567.6,179.9571,303.8973,41.98042,56.65041
518584.9,180.5281,303.6842,42.07069,56.63195
518601.6,181.1139,303.1508,42.16302,56.58566
518618.9,181.5825,302.3298,42.23671,56.5142
518634.8,182.0294,301.7694,42.30679,56.46527
518654.7,182.4659,301.3731,42.37511,56.43059
518668.9,182.8938,301.1191,42.44194,56.40832
518685.5,182.9707,300.9331,42.45395,56.39201
518701.5,182.454,300.9265,42.37325,56.39143
518718.3,181.9128,301.089,42.28853,56.40569
518734.6,181.2632,301.3011,42.18652,56.42428
518752.8,180.6164,301.8596,42.08463,56.47315
518767.8,180.1403,302.5494,42.00941,56.53334
518784.1,179.4352,303.5771,41.89769,56.62266
518801.1,178.6923,304.5257,41.77956,56.70473
518817.9,177.9213,305.3184,41.6565,56.77304
518834,177.0092,305.9725,41.5103,56.82922
518850.9,176.3545,306.2938,41.40497,56.85676
518868.2,175.9618,306.4855,41.34161,56.87317
518884.1,175.7785,306.3072,41.31199,56.85791
518902.8,175.4484,306.0175,41.2586,56.83308
518918.5,175.0144,305.5829,41.18826,56.79578
518934,174.4646,305.0439,41.09893,56.74941
518951.1,173.7553,304.5953,40.98335,56.71074
518967.6,172.9655,304.1951,40.85415,56.67617
518984.2,172.1407,303.9973,40.71869,56.65905
519001.3,171.5426,304.0043,40.62012,56.65967
519018.7,171.1304,303.9142,40.55201,56.65186
519035,170.697,303.8799,40.48026,56.6489
519051.9,170.3214,304.0852,40.41794,56.66666
519068,169.7906,304.3751,40.32969,56.69173
519085.6,169.4248,304.6339,40.26874,56.71407
519102.1,168.9828,304.8385,40.19493,56.73172
519118.9,168.5723,305.1182,40.12626,56.75581
519136.3,168.2185,305.3735,40.06694,56.77778
519151.6,167.6085,305.4714,39.96444,56.78619
519169.3,166.9498,305.7832,39.8534,56.81298
519185.9,166.5192,305.9078,39.78063,56.82367
519202.7,166.1125,305.8693,39.71175,56.82037
519224.1,165.6687,305.7492,39.63643,56.81006
519236.3,165.2115,305.6404,39.55867,56.80072
519251.8,164.6533,305.4207,39.46348,56.78183
519271,164.4123,305.0367,39.4223,56.74879
519285.3,164.3426,304.8132,39.41039,56.72954
519304.3,164.5485,304.5952,39.44558,56.71074
519321.1,164.9443,304.3183,39.51314,56.68682
519336.8,165.584,304.0512,39.62203,56.66372
519353.5,166.213,303.7152,39.72878,56.63463
519373.5,166.6795,303.6842,39.80774,56.63195
519389.7,167.093,303.9142,39.87757,56.65186
519406.5,167.5098,304.0417,39.94782,56.6629
519424,168.0412,304.0392,40.03719,56.66268
519441,168.5746,303.9807,40.12664,56.65762
519455.3,169.1935,303.8659,40.23014,56.64769
519472,169.9539,303.6754,40.35686,56.63118
519488.9,170.741,303.3448,40.48755,56.60251
519506,171.3406,303.1004,40.58677,56.58128
519522.5,171.792,302.7958,40.66126,56.5548
519539.5,172.1266,302.657,40.71638,56.54271
519555.7,172.5888,302.5389,40.79235,56.53242
519574.3,173.3584,302.9678,40.91848,56.56976
519590.3,174.1149,303.1037,41.04201,56.58157
519607.8,174.906,303.403,41.17067,56.60756
519628.1,175.6347,303.2462,41.28875,56.59395
519641,176.0958,303.1579,41.36324,56.58627
519657.4,176.4999,303.0505,41.42839,56.57694
519673.5,177.2076,302.8141,41.54217,56.55639
519692,177.796,302.4427,41.63645,56.52405
519708,178.4285,301.9044,41.7375,56.47706
519722.2,179.0988,301.5251,41.84426,56.44389
519739.9,179.6173,301.3294,41.92658,56.42676
519754.8,180.2661,301.0752,42.0293,56.40447
519772.2,180.8406,300.9449,42.11998,56.39305
519790.7,181.6325,300.8709,42.24455,56.38654
519808,182.29,300.9787,42.34761,56.396
519825.1,183.0341,301.0376,42.46383,56.40118
519842.8,183.6789,301.0482,42.5642,56.40211
519857.3,184.3393,300.9312,42.66665,56.39184
519874,184.8642,300.8606,42.74786,56.38564
519890.5,185.3672,300.7376,42.82546,56.37484
519909.4,185.7652,300.7036,42.88674,56.37185
519925.5,186.1185,300.5348,42.94102,56.35701
519940.3,186.3627,300.3633,42.97849,56.34193
519956.5,186.6073,300.2324,43.01598,56.3304
519973.4,186.9543,299.9792,43.06907,56.30809
519992.8,187.2283,299.9588,43.11094,56.3063
520007.4,187.6098,299.9284,43.16913,56.30362
520024.3,187.9667,299.9959,43.22347,56.30957
520040.5,188.3022,300.0472,43.27446,56.31409
520058.7,188.4953,300.0172,43.30376,56.31144
520072.9,188.7141,299.9586,43.33695,56.30629
520091.5,188.9229,299.9958,43.36857,56.30956
520107.3,189.237,299.9915,43.41608,56.30918
520123.8,189.4809,300,43.45293,56.30994
520139.3,189.7466,299.8588,43.49302,56.29748
520156.4,189.9419,299.81,43.52245,56.29318
520176.1,190.1991,299.6655,43.56117,56.28043
520192.4,190.3886,299.485,43.58965,56.26448
520207.9,190.5652,299.462,43.61619,56.26245
520224.1,190.7506,299.4144,43.64401,56.25825
520241.9,190.8367,299.3676,43.65693,56.2541
520258,190.8125,299.3273,43.6533,56.25055
520273.1,190.7431,299.1662,43.64289,56.23629
520290.8,190.48,299.0136,43.60339,56.22278
520308.5,190.1559,298.81,43.55466,56.20475
520325.2,189.5297,298.3261,43.4603,56.16181
520341.2,188.8715,297.935,43.36079,56.12704
520357.3,188.0417,297.5128,43.23488,56.08943
520373.1,187.1711,296.9997,43.1022,56.04362
520389.7,186.2855,296.7021,42.96666,56.017
520406.2,185.494,296.4989,42.845,55.99881
520423,184.6042,296.0776,42.70765,55.96103
520442.3,183.9287,295.676,42.60299,55.92495
520456.8,183.2268,295.0992,42.49386,55.87301
520473.2,182.5407,294.4915,42.38682,55.81813
520490.1,181.8437,293.8277,42.27769,55.75801
520507.9,181.3587,292.9041,42.20153,55.67406
520525,180.9336,292.1514,42.13464,55.60538
520541.1,180.5758,291.4165,42.07821,55.53807
520556.9,180.3612,290.4296,42.04433,55.44734
520574,180.1996,289.3793,42.01879,55.35032
520591.3,180.0792,288.1129,41.99974,55.23269
520607.9,180.1626,286.4479,42.01293,55.07698
520623.8,180.1448,284.7676,42.01012,54.91859
520640.8,180.3058,283.057,42.03557,54.75607
520657.8,180.4499,281.5918,42.05834,54.6158
520673.3,180.7243,280.4639,42.10164,54.50718
520690.3,181.0428,279.7807,42.15183,54.44108
520707.5,181.3742,279.3315,42.20398,54.39753
520725.3,181.7243,279.2558,42.25897,54.39017
520741.2,182.0173,278.7539,42.3049,54.34137
520757.7,182.3533,278.1808,42.35751,54.28549
520773.6,182.7466,277.3467,42.41898,54.2039
520799.3,182.9584,276.5897,42.45203,54.12959
520813.1,183.1483,275.7354,42.48164,54.04539
520826.3,183.4156,274.75,42.52325,53.94783
520843.4,183.6611,273.5156,42.56144,53.82499
520860.2,183.9496,272.5946,42.60623,53.73286
520877.6,184.2067,271.837,42.64612,53.65678
520893.4,184.6122,271.2203,42.70889,53.59464
520910.2,185.0509,270.6759,42.77668,53.53963
520929.1,185.4175,270.2018,42.83322,53.49162
520942.9,185.7644,269.6677,42.88661,53.43739
520959,186.1241,269.1787,42.94189,53.38762
520975.6,186.412,268.6995,42.98605,53.33874
520994.5,186.782,268.1318,43.04272,53.28068
521012,187.1617,267.8616,43.10077,53.25299
521028.8,187.6351,267.6623,43.17298,53.23254
521045.2,188.0304,267.3154,43.23315,53.1969
521060.5,188.3922,267.0779,43.28812,53.17248
521077.3,188.7021,266.8308,43.33513,53.14703
521093.5,189.0466,266.5544,43.38729,53.11853
521112.8,189.3528,266.265,43.43359,53.08863
521129.4,189.6221,266.0484,43.47425,53.06625
521145.3,189.8179,265.8445,43.50377,53.04514
521161.6,190.0172,265.3779,43.53379,52.99678
521178.7,190.2867,264.8988,43.57433,52.947
521196.3,190.4689,264.3863,43.60172,52.89363
521210,190.7541,264.058,43.64453,52.85937
521228,190.9807,263.8328,43.67852,52.83584
521244.4,191.1936,263.6611,43.71039,52.81788
521271.6,191.3718,263.237,43.73706,52.77346
521288.3,191.4546,262.9736,43.74944,52.74582
521298.7,191.5299,262.7455,43.76069,52.72187
521310.4,191.6065,262.4122,43.77214,52.68681
521328,191.6986,262.1381,43.78589,52.65794
521344.5,191.8486,261.8513,43.80828,52.62769
521362.3,191.9426,261.6181,43.82231,52.60306
521379.3,191.5792,262.2678,43.76805,52.6716
521394.6,191.5571,262.1463,43.76476,52.6588
521411.6,191.5525,262.0919,43.76407,52.65306
521427.8,191.5363,261.8778,43.76164,52.63049
521443.3,191.5218,261.7531,43.75948,52.61732
521461.5,191.485,261.5778,43.75398,52.5988
521479.3,191.4695,261.3522,43.75167,52.57495
521496.7,191.3884,261.1433,43.73955,52.55283
521511,191.3723,261.044,43.73713,52.54231
521527.8,191.3423,260.9439,43.73264,52.5317
521543.9,191.3814,260.8571,43.73849,52.5225
521561.3,191.3301,260.8675,43.73082,52.5236
521599.8,191.3585,261.0338,43.73507,52.54124
521614.3,191.3914,261.1692,43.73999,52.55558
521629.6,191.4145,261.2493,43.74344,52.56406
521642.1,191.4374,261.288,43.74687,52.56815
521653.8,191.4281,261.3595,43.74548,52.57572
521663.7,191.4345,261.5787,43.74643,52.5989
521679.8,191.4073,261.6122,43.74236,52.60244
521696.2,191.3474,261.6415,43.7334,52.60553
521713.1,191.2563,261.6949,43.71979,52.61118
521728.8,191.1279,261.7998,43.70056,52.62226
521746,191.0521,261.8329,43.68921,52.62574
521763.2,190.951,261.8606,43.67406,52.62867
521779.8,190.8834,261.9955,43.66393,52.64291
521797.3,190.8541,262.2388,43.65954,52.66855
521813.3,190.8993,262.3865,43.66631,52.6841
521828.8,190.9992,262.462,43.68129,52.69205
521845.4,191.0968,262.481,43.6959,52.69405
521862.1,191.0878,262.7285,43.69456,52.72008
521880,191.0728,262.978,43.69231,52.74628
521897.4,191.0122,263.2308,43.68324,52.77281
521913.3,191.0561,263.3563,43.68981,52.78597
521931.3,191.0497,263.4664,43.68885,52.7975
521946.8,190.9834,263.4684,43.67891,52.79771
521962.5,190.9619,263.5795,43.6757,52.80934
521978.4,190.9628,263.5696,43.67583,52.80831
521995,191.0732,263.4154,43.69237,52.79216
522012.2,191.1666,263.5215,43.70636,52.80326
522029.1,191.3098,263.6745,43.72779,52.81929
522047.5,191.4159,263.7805,43.74365,52.83038
522063.9,191.443,264.0733,43.74771,52.86097
522080,191.4344,264.2206,43.74641,52.87635
522095.5,191.4539,264.3843,43.74933,52.89342
522115.8,191.4694,264.6318,43.75165,52.91921
522129.1,191.3584,264.9447,43.73506,52.95177
522147.5,191.2391,265.2154,43.71721,52.97991
522163.3,191.155,265.4857,43.70461,53.00796
