Time Stamp(ms),Intersection,,Angle,
,x,y,x,y
1626443,334.5639,244.8302,59.12931,50.75486
1626459,334.1416,245.4946,59.09742,50.83092
1626474,334.2262,247.0995,59.10382,51.01363
1626497,334.8953,248.4123,59.15429,51.16201
1626508,335.8963,249.4247,59.22951,51.27578
1626525,336.938,249.6023,59.30744,51.29569
1626542,337.5026,248.193,59.34953,51.13728
1626560,337.1975,246.5486,59.32679,50.95107
1626575,336.403,245.3959,59.26746,50.81964
1626594,336.283,245.4087,59.25848,50.8211
1626610,336.7858,245.8628,59.29607,50.87296
1626625,338.2256,246.5699,59.40327,50.95349
1626643,339.3111,246.4967,59.48365,50.94517
1626659,339.9153,245.7192,59.52822,50.85658
1626676,339.4403,244.4678,59.49318,50.71328
1626693,338.3086,243.851,59.40943,50.64233
1626710,337.738,243.6261,59.36704,50.61639
1626729,337.2515,243.483,59.33082,50.59989
1626743,336.6577,243.0796,59.2865,50.55328
1626758,335.4261,242.2697,59.19421,50.45943
1626776,334.0215,241.4505,59.08834,50.36412
1626790,332.3845,240.8136,58.96414,50.28976
1626806,330.5049,240.615,58.82041,50.26653
1626824,328.7428,240.6857,58.68457,50.2748
1626842,326.8806,241.0228,58.53986,50.31421
1626857,324.1225,241.6066,58.32331,50.38232
1626877,321.0473,242.2985,58.0787,50.46277
1626893,316.6992,243.0924,57.72702,50.55476
1626910,311.4586,243.6532,57.29386,50.61953
1626927,304.0279,244.714,56.66171,50.74154
1626943,296.5241,245.759,56.00107,50.86112
1626960,289.3723,246.8605,55.34966,50.9865
1626976,282.9892,248.3468,54.74959,51.15462
1626990,276.4886,250.6961,54.11964,51.41788
1627008,270.9268,252.481,53.56501,51.61589
1627025,265.7722,253.063,53.03766,51.68009
1627042,261.0023,252.8504,52.5379,51.65665
1627060,256.5514,252.2359,52.06105,51.5888
1627073,252.5218,252.3522,51.62039,51.60166
1627094,249.1645,252.852,51.2466,51.65683
1627109,245.6492,254.1236,50.84858,51.7966
1627126,242.2237,255.6243,50.45409,51.96043
1627144,240.25,257.0033,50.22377,52.10994
1627159,238.3172,258.7923,49.99603,52.30241
1627176,236.2981,260.2592,49.75581,52.45899
1627194,234.5599,261.2018,49.54708,52.55902
1627208,233.6942,261.6827,49.44244,52.60988
1627227,233.2285,261.9881,49.38598,52.64212
1627245,232.9371,262.0911,49.35058,52.65298
1627259,232.7873,262.114,49.33237,52.6554
1627276,232.9206,262.0936,49.34857,52.65324
1627297,233.074,262.1688,49.36722,52.66118
1627309,233.402,262.2113,49.40704,52.66566
1627327,234.003,262.2353,49.47983,52.66818
1627341,234.399,262.3291,49.52766,52.67806
1627358,234.8196,262.3204,49.57837,52.67714
1627375,235.357,262.2681,49.64302,52.67164
1627396,235.8661,262.2943,49.7041,52.6744
1627409,236.2366,262.4,49.74845,52.68553
1627426,236.278,262.6638,49.7534,52.71328
1627443,235.9613,262.8706,49.71551,52.73502
1627460,235.6522,263.0245,49.67846,52.75117
1627476,235.3172,263.4023,49.63824,52.79078
1627494,235.1749,263.827,49.62113,52.83524
1627510,234.8773,264.1333,49.58533,52.86723
1627526,234.3849,264.2086,49.52597,52.87509
1627542,233.6255,264.1743,49.43412,52.87152
1627560,233.2612,264.3287,49.38995,52.88763
1627576,233.1226,264.6542,49.37312,52.92155
1627593,233.1815,265.0477,49.38027,52.96248
1627608,233.117,265.3303,49.37244,52.99183
1627626,233.104,265.6891,49.37086,53.02905
1627642,233.4278,265.9929,49.41016,53.0605
1627664,233.7776,266.0274,49.45255,53.06407
1627678,234.1161,265.8542,49.4935,53.04615
1627692,234.4243,265.6613,49.53072,53.02617
1627709,234.4443,265.5791,49.53313,53.01765
1627727,234.3712,265.6234,49.52431,53.02223
1627742,234.3944,265.8027,49.52711,53.04082
1627758,234.4999,265.8059,49.53984,53.04115
1627775,234.5253,265.719,49.5429,53.03215
1627792,234.4488,265.6713,49.53368,53.0272
1627808,234.3616,265.62,49.52315,53.02189
1627825,234.5112,265.3862,49.5412,52.99764
1627842,234.7559,265.0205,49.5707,52.95966
1627859,235.0078,264.7959,49.60104,52.93629
1627874,235.2527,264.6906,49.63048,52.92533
1627892,235.3797,264.6765,49.64574,52.92387
1627911,235.6458,264.8693,49.67768,52.94393
1627929,235.912,264.9916,49.70959,52.95665
1627945,236.2066,265.0887,49.74486,52.96674
1627961,236.4641,265.2454,49.77565,52.98302
1627979,236.6706,265.2388,49.8003,52.98233
1627994,236.9474,265.0648,49.83332,52.96427
1628011,237.1366,265.0316,49.85587,52.9608
1628028,237.3503,264.9266,49.88129,52.94989
1628046,237.5599,264.7849,49.90621,52.93516
1628061,237.7298,264.7838,49.92639,52.93504
1628078,237.969,264.9738,49.95478,52.9548
1628094,238.2592,265.1186,49.98917,52.96985
1628112,238.5341,265.2264,50.0217,52.98105
1628128,238.8542,265.4321,50.05952,53.0024
1628147,238.966,265.3799,50.07272,52.99699
1628163,238.9095,265.288,50.06604,52.98744
1628179,238.8038,265.1799,50.05357,52.97622
1628195,238.8601,265.3796,50.06021,52.99696
1628212,238.8654,265.8907,50.06084,53.04992
1628228,238.7589,266.2266,50.04827,53.08467
1628250,238.4483,266.5631,50.01155,53.11942
1628267,238.2371,266.7198,49.98655,53.13558
1628279,238.1559,266.8609,49.97693,53.15013
1628292,238.2086,267.0427,49.98318,53.16885
1628312,238.2285,267.3076,49.98553,53.1961
1628330,238.2407,267.5253,49.98698,53.21847
1628345,238.3568,267.709,50.00072,53.23733
1628361,238.64,267.9551,50.03422,53.26258
1628381,238.8072,268.1805,50.05397,53.28566
1628396,239.0434,268.511,50.08186,53.31948
1628410,239.2027,268.6934,50.10064,53.33811
1628428,239.4086,268.8348,50.1249,53.35255
1628444,239.7101,268.8369,50.16037,53.35277
1628464,239.9429,268.8828,50.18772,53.35745
1628475,240.2244,268.8976,50.22076,53.35896
1628491,240.5165,268.9662,50.25499,53.36596
1628511,240.7153,269.0968,50.27826,53.37928
1628528,240.9155,269.2223,50.30167,53.39206
1628543,241.1508,269.2217,50.32916,53.392
1628561,241.3388,269.3495,50.3511,53.40501
1628578,241.5622,269.4271,50.37714,53.41291
1628595,241.8009,269.5532,50.40493,53.42575
1628608,242.0556,269.6741,50.43457,53.43804
1628627,242.3086,269.7182,50.46394,53.44252
1628644,242.4626,269.8156,50.48182,53.45242
1628658,242.6373,269.8552,50.50208,53.45644
1628675,242.8828,269.9138,50.53051,53.46239
1628691,243.0586,269.9087,50.55085,53.46188
1628708,243.1384,270.0267,50.56008,53.47385
1628725,243.1232,270.0834,50.55833,53.47961
1628742,243.1073,270.1601,50.55649,53.48739
1628759,243.1458,270.3814,50.56094,53.50982
1628776,243.331,270.444,50.58234,53.51616
1628791,243.5652,270.5402,50.60937,53.5259
1628808,243.9415,270.421,50.65275,53.51383
1628825,244.1553,270.4193,50.67735,53.51366
1628842,244.317,270.521,50.69595,53.52396
1628860,244.5094,270.6581,50.71806,53.53783
1628877,244.7896,270.7642,50.75021,53.54857
1628894,244.9574,270.7067,50.76945,53.54275
1628911,245.0694,270.7036,50.78228,53.54244
1628928,245.0977,270.8777,50.78551,53.56005
1628943,245.2049,270.867,50.79779,53.55896
1628961,245.1234,271.1309,50.78845,53.58562
1628981,245.0565,271.1409,50.7808,53.58662
1628996,245.003,271.2493,50.77467,53.59757
1629010,245.0063,271.3674,50.77505,53.60948
1629029,244.9835,271.4946,50.77243,53.6223
1629045,244.9331,271.5194,50.76666,53.62481
1629062,244.918,271.4526,50.76493,53.61807
1629083,244.871,271.4893,50.75954,53.62177
1629096,244.8245,271.6379,50.75422,53.63674
1629111,244.8075,271.7898,50.75226,53.65203
1629128,244.8446,271.8039,50.75652,53.65345
1629144,245.0056,271.8714,50.77496,53.66024
1629162,245.1566,271.8482,50.79226,53.65791
1629179,245.1846,271.8315,50.79546,53.65623
1629194,245.2888,271.7698,50.80739,53.65002
1629211,245.4038,271.7671,50.82054,53.64975
1629229,245.6345,271.5941,50.8469,53.63232
1629245,245.8141,271.4953,50.8674,53.62238
1629261,245.9573,271.425,50.88374,53.61529
1629276,246.0736,271.5053,50.897,53.62338
1629294,246.2915,271.719,50.92181,53.64491
1629312,246.4986,271.6859,50.94538,53.64158
1629329,246.7168,271.5638,50.97018,53.62927
1629344,246.8261,271.4832,50.98259,53.62116
1629363,246.9663,271.3715,50.99851,53.6099
1629378,247.0614,271.3153,51.0093,53.60423
1629394,247.1293,271.3318,51.01699,53.60589
1629412,247.1658,271.1243,51.02114,53.58496
1629428,247.1808,271.1286,51.02283,53.58539
1629444,247.2021,271.1007,51.02525,53.58257
1629462,247.2623,270.961,51.03207,53.56846
1629479,247.3263,270.8914,51.03933,53.56143
1629495,247.4687,270.7713,51.05545,53.54928
1629512,247.528,270.7106,51.06215,53.54315
1629530,247.6075,270.5551,51.07115,53.52741
1629545,247.4722,270.8512,51.05584,53.55737
1629572,247.5271,270.7624,51.06206,53.54838
1629580,247.4892,270.7063,51.05776,53.54271
1629594,247.5527,270.5425,51.06495,53.52614
1629610,247.6088,270.2342,51.0713,53.4949
1629627,247.6579,269.3498,51.07685,53.40504
1629643,247.8205,267.8754,51.09523,53.2544
1629660,247.909,265.9099,51.10523,53.05191
1629676,247.9003,264.0783,51.10425,52.86149
1629693,247.8145,262.8497,51.09456,52.73281
1629713,247.677,262.0717,51.07901,52.65094
1629730,247.5536,261.5919,51.06506,52.60029
1629746,247.5658,260.3305,51.06644,52.46658
1629764,247.6113,258.7061,51.07158,52.29318
1629779,247.6865,257.2291,51.08008,52.13433
1629796,247.6813,256.0356,51.0795,52.00514
1629813,247.7039,254.899,51.08205,51.8814
1629831,247.6953,253.7561,51.08108,51.75629
1629848,247.7672,252.8448,51.08921,51.65603
1629865,247.8443,252.2395,51.09792,51.5892
1629880,248.0116,251.4559,51.11681,51.50238
1629897,248.3418,250.783,51.15405,51.42756
1629913,248.5379,250.0541,51.17614,51.34624
1629930,248.7264,249.3475,51.19736,51.26714
1629947,249.0176,248.7136,51.2301,51.19593
1629963,249.4588,247.9511,51.2796,51.10998
1629980,249.9007,247.34,51.32909,51.04087
1629998,250.2494,247.0808,51.36805,51.01149
1630014,250.618,246.4307,51.40918,50.93766
1630031,251.113,245.6854,51.46429,50.85272
1630049,251.5177,245.2618,51.50924,50.8043
1630064,251.867,244.9089,51.54797,50.76389
1630080,252.2791,244.409,51.59357,50.70652
1630098,252.7909,243.9214,51.65009,50.65044
1630116,253.6118,243.158,51.74044,50.56234
1630133,254.2599,242.4881,51.81152,50.48478
1630146,254.9044,241.8853,51.88199,50.41476
1630162,255.7885,240.9982,51.97829,50.31134
1630181,256.6302,240.347,52.06959,50.23513
1630197,257.5557,239.5893,52.16955,50.14616
1630211,258.6917,238.9182,52.29163,50.06708
1630230,259.4817,238.325,52.37614,49.99695
1630246,260.1429,237.7241,52.44662,49.92571
1630262,260.8919,237.3098,52.52619,49.87648
1630280,261.7268,236.7492,52.61454,49.80969
1630295,262.5582,236.1358,52.70218,49.73639
1630313,263.1082,235.503,52.75995,49.66055
1630329,263.5446,234.7486,52.80569,49.56982
1630345,264.0921,233.9218,52.86293,49.47
1630362,264.7041,233.1737,52.92674,49.37933
1630378,265.3145,232.3857,52.9902,49.28345
1630394,265.9452,231.3676,53.05556,49.15903
1630412,266.4899,230.4478,53.11187,49.04609
1630430,266.9727,229.6474,53.16164,48.94739
1630444,267.4598,229.057,53.21175,48.87432
1630461,267.9139,228.4074,53.25835,48.79369
1630478,268.2154,227.7575,53.28923,48.71276
1630496,268.5547,226.9012,53.32394,48.60572
1630513,268.7891,226.1535,53.34788,48.5119
1630533,269.0062,225.436,53.37004,48.42153
1630548,269.0364,224.7897,53.37311,48.33986
1630564,268.9825,224.1854,53.36761,48.26325
1630577,268.8051,223.7306,53.34951,48.20544
1630598,268.7495,223.2484,53.34383,48.14401
1630611,268.6576,222.3389,53.33445,48.02774
1630630,268.547,221.7398,53.32316,47.95087
1630647,268.2679,221.662,53.29461,47.94086
1630663,268.1074,221.2041,53.27818,47.88193
1630680,267.9943,220.8088,53.26659,47.83095
1630697,267.9319,220.4995,53.26019,47.79098
1630712,267.8301,220.1164,53.24976,47.7414
1630730,267.692,219.6844,53.23559,47.68536
1630747,267.5561,218.9685,53.22163,47.59225
1630764,267.517,218.6296,53.21762,47.54806
1630780,267.5717,218.3769,53.22324,47.51506
1630796,267.6571,218.3591,53.232,47.51273
1630813,267.7552,218.0735,53.24207,47.47538
1630829,267.9054,217.6848,53.25748,47.42446
1630846,267.9812,217.3199,53.26525,47.37656
1630863,268.0178,216.8963,53.269,47.32086
1630879,268.1696,216.2481,53.28454,47.23539
1630895,268.3093,215.7209,53.29884,47.16566
1630913,268.5053,214.7705,53.31889,47.03951
1630929,268.6191,213.9547,53.33052,46.93075
1630948,268.7979,213.1713,53.34878,46.82589
1630966,269.0947,212.6324,53.37906,46.75352
1630983,269.3463,212.2115,53.4047,46.69685
1630999,269.7518,211.8053,53.44593,46.64206
1631015,270.3103,211.3811,53.50261,46.58472
1631031,270.9922,211.1013,53.57161,46.54683
1631047,272.061,210.776,53.67931,46.50271
1631066,273.011,210.1398,53.77457,46.41623
1631082,274.376,209.4659,53.91069,46.3243
1631099,275.7799,208.9861,54.04977,46.25868
1631114,277.7104,208.5431,54.23952,46.19794
1631132,281.0209,207.9938,54.56089,46.12245
1631148,285.8143,207.9401,55.0174,46.11506
1631166,289.5908,207.9917,55.36989,46.12217
1631181,295.4262,208.2468,55.90247,46.15725
1631198,300.5346,208.2801,56.357,46.16182
1631215,305.9053,207.6299,56.82346,46.07233
1631235,310.4065,206.9953,57.20565,45.98469
1631248,315.2162,206.2118,57.60548,45.8761
1631265,320.8662,204.6904,58.06419,45.66404
1631284,325.031,203.3978,58.39494,45.48259
1631301,329.198,201.9962,58.71976,45.28451
1631316,333.3001,200.7433,59.03373,45.10627
1631335,336.6769,199.7809,59.28794,44.9686
1631350,340.3084,198.9322,59.55716,44.84664
1631366,344.3708,198.1457,59.8533,44.73316
1631384,347.6542,197.5699,60.08886,44.64979
1631399,351.2429,196.975,60.34253,44.5634
1631417,354.5058,196.2758,60.5698,44.46155
1631434,357.3054,195.6005,60.76228,44.36284
1631451,359.922,194.8978,60.94012,44.25976
1631468,361.7952,194.2159,61.06623,44.15939
1631484,363.329,193.5737,61.16874,44.06456
1631500,364.5956,192.9819,61.2529,43.97688
1631517,365.7805,192.5552,61.33122,43.91351
1631533,366.7762,192.0131,61.39673,43.83281
1631550,367.6583,191.4601,61.45454,43.75026
1631567,368.3417,190.7351,61.49919,43.64169
1631585,368.9164,190.0098,61.53663,43.53267
1631602,369.3088,189.4066,61.56215,43.44171
1631618,369.5923,188.8252,61.58055,43.35378
1631633,369.8209,188.0942,61.59538,43.24285
1631652,370.093,187.3208,61.61301,43.12505
1631667,370.3284,186.7377,61.62824,43.03595
1631683,370.6833,186.0093,61.65118,42.92426
1631700,371.1089,185.4295,61.67865,42.83506
1631717,371.647,184.8897,61.7133,42.75179
1631733,372.2705,184.3958,61.75336,42.67541
1631751,372.8159,184.2915,61.78832,42.65924
1631767,373.3022,184.1568,61.81942,42.63837
1631785,373.6519,184.3882,61.84175,42.67422
1631801,373.9684,184.389,61.86193,42.67435
1631815,374.203,184.3502,61.87687,42.66835
1631831,374.3007,184.2823,61.88308,42.65783
1631849,374.3298,184.1166,61.88494,42.63214
1631865,374.2082,183.8624,61.8772,42.5927
1631883,373.8582,183.6655,61.8549,42.56211
1631899,373.4903,183.469,61.83143,42.53156
1631915,373.0695,183.2844,61.80455,42.50283
1631931,372.5181,183.1281,61.76924,42.47849
1631948,372.0455,183.0996,61.73892,42.47404
1631965,371.5627,183.0348,61.70788,42.46394
1631982,371.1,182.9106,61.67807,42.44456
1631998,370.6908,182.8222,61.65166,42.43077
1632013,370.2491,182.9129,61.62311,42.44493
1632030,369.8064,183.1505,61.59443,42.48198
1632047,369.5008,183.3598,61.57461,42.51456
1632063,369.2651,183.7648,61.5593,42.57755
1632080,368.9329,184.0609,61.5377,42.62351
1632096,368.6271,184.2206,61.51779,42.64826
1632113,368.3528,184.386,61.49991,42.67389
1632130,368.1911,184.6626,61.48936,42.71669
1632147,368.1202,184.9556,61.48473,42.76196
1632163,368.0229,185.5017,61.47838,42.84619
1632181,367.9067,185.8398,61.47078,42.8982
1632199,367.8226,186.1978,61.46529,42.95319
1632215,367.7353,186.7415,61.45958,43.03652
1632231,367.6759,187.3096,61.4557,43.12335
1632251,367.7099,187.78,61.45792,43.19505
1632266,367.6341,188.2581,61.45296,43.26775
1632280,367.614,188.2377,61.45165,43.26466
1632300,367.5243,188.7744,61.44578,43.34608
1632314,367.4543,189.1168,61.4412,43.39791
1632333,367.4401,189.6207,61.44026,43.47403
1632352,367.4168,189.9233,61.43874,43.51965
1632366,367.5036,189.3999,61.44442,43.44071
1632382,367.5231,189.6299,61.4457,43.47542
1632398,367.6057,189.8302,61.4511,43.50562
1632416,367.7051,190.0652,61.4576,43.54102
1632434,367.8231,190.4325,61.46532,43.59625
1632450,367.9573,190.7995,61.47409,43.65135
1632464,368.18,191.1465,61.48864,43.70335
1632481,368.3928,191.7169,61.50252,43.78863
1632497,368.6013,192.4165,61.51611,43.8929
1632515,368.7909,193.2912,61.52846,44.02274
1632531,368.9839,193.8986,61.54102,44.11257
1632548,369.1119,194.5868,61.54935,44.21403
1632564,369.23,195.1997,61.55702,44.30409
1632581,369.3355,195.9829,61.56387,44.41877
1632598,369.4907,196.9203,61.57396,44.55545
1632615,369.5835,197.822,61.57998,44.68632
1632631,369.5952,198.6861,61.58074,44.81118
1632648,369.6077,199.3634,61.58155,44.90867
1632667,369.6165,199.9418,61.58212,44.99166
1632688,369.5566,200.525,61.57824,45.07511
1632700,369.4324,201.1528,61.57017,45.16466
1632716,369.2258,201.9535,61.55675,45.27845
1632731,369.0002,202.932,61.54208,45.41692
1632748,368.7636,203.8947,61.52668,45.55248
1632766,368.4667,205.4864,61.50734,45.77519
1632782,368.2316,207.3387,61.492,46.03214
1632799,368.0041,209.6278,61.47715,46.34642
1632815,367.5815,213.4726,61.44952,46.86627
1632832,367.172,217.3467,61.4227,47.38008
1632848,366.6318,223.0757,61.38725,48.12198
1632865,366.0359,229.1421,61.34805,48.88486
1632883,365.4347,235.4148,61.3084,49.64996
1632900,364.8224,241.185,61.26792,50.33315
1632917,364.1672,245.9001,61.22449,50.87722
1632934,363.4683,249.8596,61.17802,51.32449
1632951,362.6947,253.1487,61.12643,51.68952
1632968,361.9169,256.3329,61.07439,52.03739
1632984,361.0658,259.4751,61.01725,52.37543
1633001,360.2795,261.5923,60.96427,52.60034
1633021,359.3139,264.4583,60.89897,52.90114
1633041,358.44,267.1414,60.83964,53.17901
1633054,357.631,269.6427,60.78452,53.43485
1633068,356.562,273.1978,60.7114,53.79325
1633085,355.4994,276.757,60.63838,54.14603
1633103,354.4636,280.1248,60.56688,54.4744
1633119,353.0947,284.4442,60.4719,54.88797
1633139,351.7741,288.8913,60.37975,55.30507
1633152,350.2455,294.6108,60.27243,55.82892
1633173,348.941,299.9717,60.18027,56.30743
1633186,347.4562,306.1815,60.07475,56.84713
1633204,345.8288,312.0785,59.95831,57.34563
1633219,343.8076,317.969,59.81255,57.83043
1633238,341.5947,324.2562,59.65149,58.33387
1633254,339.632,330.4473,59.50733,58.81598
1633270,337.7284,337.264,59.36633,59.33175
1633287,335.7198,344.8354,59.21626,59.88683
1633306,333.4917,351.9827,59.04825,60.39434
1633323,331.8943,356.5763,58.92677,60.71238
1633337,329.833,361.6222,58.76874,61.05462
1633352,327.8298,366.4644,58.61378,61.37625
1633370,326.2013,371.184,58.48677,61.68349
1633385,324.4716,376.6173,58.35087,62.02977
1633405,323.0214,380.7878,58.23611,62.29034
1633422,321.7404,384.2787,58.13412,62.50502
1633437,320.4477,387.3359,58.03061,62.69054
1633452,319.1866,390.8511,57.92905,62.901
1633469,318.1717,394.2501,57.84688,63.10167
1633484,317.4504,397.3432,57.78826,63.28191
1633502,316.8001,400.1454,57.73525,63.44328
1633520,316.2061,402.322,57.6867,63.56738
1633534,315.798,404.3469,57.65326,63.68186
1633551,315.4306,406.3772,57.6231,63.79573
1633567,315.1369,408.4059,57.59896,63.9086
1633588,314.9485,409.745,57.58345,63.9826
1633604,314.9598,410.767,57.58438,64.03883
1633622,314.9992,411.7676,57.58763,64.09365
1633638,315.1786,412.2543,57.60239,64.12024
1633651,315.4839,412.4999,57.62748,64.13364
1633668,315.7379,412.3935,57.64833,64.12784
1633688,315.9762,412.1145,57.66787,64.11261
1633702,316.3549,411.3539,57.69887,64.07101
1633722,316.5672,410.6064,57.71622,64.03001
1633741,316.7716,409.9622,57.73293,63.99457
1633753,317.0204,408.9676,57.75323,63.93969
1633769,317.1397,407.9628,57.76296,63.88403
1633790,317.3123,406.8806,57.77702,63.82382
1633810,317.4339,405.9374,57.78692,63.77114
1633828,317.5732,405.2186,57.79826,63.73086
1633848,317.4694,405.2539,57.78981,63.73284
1633871,317.09,406.237,57.7589,63.7879
1633888,316.8289,406.5854,57.73761,63.80735
1633904,316.5381,406.5632,57.71386,63.80611
1633921,316.2417,405.9349,57.68961,63.771
1633939,315.9942,404.8563,57.66934,63.71051
1633961,315.5926,403.8327,57.6364,63.65288
1633976,314.9736,402.9647,57.58552,63.60381
1633994,314.3322,402.1836,57.53265,63.55951
1634014,313.1579,401.3513,57.43544,63.51217
1634036,311.9363,400.496,57.33377,63.46334
1634054,310.2252,399.334,57.19041,63.39674
1634068,306.8463,396.8773,56.904,63.25491
1634087,300.3943,391.8822,56.34466,62.96217
1634107,288.338,384.6563,55.25364,62.52806
