Time Stamp(ms),Intersection,,Angle,
,x,y,x,y
839350.8,324.4942,252.7716,58.35265,51.64796
839366.3,325.2943,252.4915,58.41564,51.61705
839385.5,325.8267,252.2601,58.45743,51.59148
839402.1,326.0316,252.1791,58.47348,51.58252
839419.1,325.9655,252.287,58.46831,51.59446
839434.1,325.8836,252.5986,58.46189,51.62887
839452.4,325.886,253.0681,58.46208,51.68065
839469.3,325.895,253.6049,58.46278,51.73969
839485.3,325.9512,254.409,58.46719,51.82785
839503.9,326.0131,255.0186,58.47204,51.89445
839518.6,326.1006,255.735,58.47889,51.97248
839533.3,326.1988,256.5858,58.48658,52.06479
839553.4,326.1919,257.1743,58.48604,52.12841
839568.7,326.1133,257.7145,58.47989,52.18665
839584.5,325.8478,258.1221,58.45908,52.23051
839603.1,325.4667,258.6724,58.42918,52.28957
839618.5,325.231,258.8605,58.41067,52.30972
839634.1,324.8949,258.9971,58.38423,52.32434
839651.6,324.2568,259.0547,58.33392,52.33051
839672.4,323.7363,259.2256,58.29278,52.34879
839689.1,323.2683,259.6208,58.25571,52.39099
839700.5,322.8663,260.3666,58.22379,52.47042
839715.9,322.6526,261.0825,58.20681,52.54639
839734.4,322.5944,261.7509,58.20218,52.61708
839751.1,322.6737,262.3931,58.20849,52.6848
839779.4,322.6223,263.4164,58.2044,52.79227
839797.4,322.5444,263.9944,58.1982,52.85272
839812.2,322.4661,264.4566,58.19197,52.90096
839820.9,322.2779,264.9315,58.17699,52.9504
839835.9,322.0821,265.267,58.16139,52.98526
839849.3,321.7275,265.3197,58.13309,52.99074
839866.5,321.4095,265.4141,58.10768,53.00053
839882.8,320.9268,265.3469,58.06905,52.99356
839903.3,320.304,265.3536,58.01907,52.99425
839916.4,319.5313,265.3341,57.95686,52.99223
839931.9,318.7167,264.9659,57.89105,52.95398
839950.7,318.142,264.4555,57.84447,52.90085
839965.3,317.5452,263.7924,57.79598,52.83162
839982.1,316.868,263.1559,57.7408,52.76496
840000.6,316.1644,262.7145,57.68328,52.71861
840017.1,315.4297,262.391,57.62302,52.68458
840031.6,314.6124,262.0916,57.55576,52.65303
840050.3,313.9557,261.9605,57.50154,52.63922
840069,313.4764,261.7923,57.46186,52.62146
840094.1,313.3233,261.7236,57.44917,52.6142
840110.7,313.4151,261.812,57.45678,52.62354
840118.1,313.6454,261.9155,57.47586,52.63447
840142.9,314.1407,261.9606,57.51683,52.63923
840149.6,314.4081,262.0074,57.53891,52.64416
840164.1,314.9633,262.2955,57.58467,52.67452
840181.3,315.7914,262.6169,57.65271,52.70834
840200.6,316.6273,262.8086,57.72114,52.7285
840215.2,317.6197,263.0034,57.80204,52.74896
840231.3,318.8302,263.2824,57.90023,52.77822
840248.8,320.5805,263.6596,58.04127,52.81773
840265.9,322.7343,263.8318,58.2133,52.83573
840282.2,325.7012,264.0735,58.44759,52.86099
840299.5,328.5053,264.5305,58.66619,52.90866
840320.4,332.6012,265.0099,58.98063,52.95856
840340,336.085,265.2852,59.24365,52.98715
840349,340.1511,265.4512,59.54558,53.00438
840364.3,345.4065,265.9794,59.92796,53.05911
840385,349.7594,266.894,60.23814,53.15354
840402.6,355.4757,267.7064,60.63675,53.23706
840421.6,360.3059,269.3298,60.96605,53.40301
840435.9,364.96,270.1714,61.27703,53.48854
840448.3,369.634,271.5004,61.58326,53.62289
840468.7,373.5798,272.9688,61.83715,53.77035
840482.9,377.2751,274.6679,62.07117,53.93969
840503.3,380.3287,276.7315,62.26188,54.14352
840518.6,383.4828,278.2146,62.45635,54.2888
840534.7,386.6542,279.4516,62.64937,54.40918
840553.4,389.4082,280.5271,62.81498,54.51327
840567.4,392.2156,281.6184,62.98189,54.61836
840585.1,394.8674,282.7046,63.13783,54.72242
840602.1,397.1729,283.754,63.27205,54.82245
840619.2,398.9263,284.7538,63.3733,54.91729
840635.5,400.6442,285.7725,63.47181,55.01346
840654.5,402.124,286.6313,63.55613,55.09419
840668.3,403.4881,287.3646,63.63342,55.16286
840685.1,404.4378,287.9586,63.68698,55.21832
840700,405.6522,288.7473,63.75517,55.2917
840720.6,406.7588,289.49,63.81703,55.36056
840740.2,407.5527,289.8995,63.86124,55.39843
840752.3,408.1142,290.1087,63.89242,55.41774
840768.8,408.83,290.5292,63.93208,55.45652
840787.9,409.2274,290.882,63.95405,55.48899
840800.8,409.7596,291.2236,63.98341,55.52037
840819.4,410.1458,291.5442,64.00468,55.54979
840835.4,410.3218,291.8844,64.01437,55.58095
840855.8,410.0624,292.07,64.00009,55.59793
840868.7,409.7831,292.2401,63.9847,55.61348
840887.4,409.4581,292.2805,63.96679,55.61717
840903.1,409.1099,292.1277,63.94755,55.60321
840919.3,408.7296,292.2158,63.92652,55.61126
840936.1,408.3214,292.4386,63.90391,55.63161
840951.6,407.8676,292.7565,63.87874,55.66061
840970.3,407.5331,292.9387,63.86015,55.67721
840985.9,407.0044,293.0933,63.83072,55.69129
841003.9,406.631,293.2155,63.80989,55.7024
841021.3,406.171,293.3542,63.78421,55.71502
841037.4,405.6512,293.6458,63.75512,55.7415
841053,405.009,293.8984,63.7191,55.76443
841069.9,404.1961,294.1125,63.67336,55.78384
841086.9,403.4087,294.2413,63.62893,55.7955
841110.9,402.5631,294.5084,63.58105,55.81966
841123.8,401.905,294.7371,63.54368,55.84032
841137.4,401.0543,295.2066,63.49523,55.88269
841155,400.4265,295.4344,63.45937,55.90321
841171.4,399.9044,295.5152,63.42947,55.91048
841188.6,399.5483,295.5658,63.40904,55.91503
841203.3,399.1377,295.6093,63.38546,55.91895
841218.8,398.8214,295.7567,63.36726,55.93221
841235.7,398.367,295.989,63.34108,55.95307
841252.3,397.6804,296.3495,63.30142,55.98542
841269.3,396.8852,296.4388,63.25536,55.99342
841288.1,396.0315,296.5356,63.20575,56.0021
841302.4,394.9983,296.636,63.14548,56.01109
841319.3,393.9135,296.7603,63.08192,56.02221
841338.3,392.2061,296.6756,62.98133,56.01463
841362,390.1179,296.1408,62.85735,55.96671
841376.4,388.9086,295.946,62.78507,55.94921
841385.9,387.0237,295.7123,62.6717,55.92821
841403.3,384.676,295.4401,62.52926,55.90372
841420.9,382.0834,295.0835,62.37037,55.87159
841437.8,379.7553,294.6843,62.22625,55.83556
841453.3,377.0401,294.301,62.0564,55.8009
841471.6,374.3474,293.773,61.88605,55.75306
841487.9,371.7041,293.0166,61.71697,55.68431
841502.8,369.0471,292.3806,61.54513,55.62631
841520.4,366.4512,292.0648,61.37538,55.59746
841534.9,363.8591,291.8738,61.20402,55.57998
841552.8,361.1664,291.6746,61.02401,55.56173
841570.9,358.5559,291.4251,60.84753,55.53886
841587.6,356.4764,291.1961,60.70553,55.51785
841603.6,354.3956,291.0011,60.56218,55.49994
841623.7,352.4302,291.101,60.4256,55.50911
841636.6,350.8767,291.151,60.31683,55.51371
841653,349.3099,291.1426,60.20638,55.51293
841669.9,348.2327,291.3033,60.13001,55.52769
841686.3,347.4454,291.3518,60.07397,55.53214
841703.6,347.2024,291.4657,60.05664,55.54259
841720.5,347.1943,291.5513,60.05606,55.55044
841736.3,347.8041,291.6938,60.09953,55.56349
841753.7,348.4402,291.868,60.14476,55.57944
841769.3,349.2882,292.1665,60.20485,55.60676
841786.3,350.6707,292.6443,60.30235,55.65038
841803.6,351.9037,293.0672,60.38882,55.68891
841820.1,353.2065,293.5066,60.47968,55.72887
841836.9,354.8314,293.7683,60.59231,55.75263
841853.6,356.3213,294.0327,60.69489,55.7766
841870.1,358.258,294.3655,60.82726,55.80674
841888.5,360.0466,294.6938,60.94854,55.83641
841905.4,362.5235,295.0862,61.11499,55.87184
841925.2,364.5373,295.2824,61.24903,55.88952
841937.6,366.9369,295.4182,61.40728,55.90174
841952.3,369.89,295.9091,61.59985,55.9459
841971.1,372.3595,296.2759,61.75908,55.97882
841986.9,374.7809,296.5283,61.91361,56.00144
842003.8,377.2722,296.9014,62.07099,56.03483
842021.1,379.7098,297.3669,62.22342,56.07642
842037.4,381.5719,297.8145,62.33883,56.11631
842052.1,383.3559,298.1724,62.44857,56.14816
842069.6,384.9928,298.5661,62.54856,56.18312
842087.3,386.1745,298.9159,62.62033,56.21413
842104.3,387.0021,299.5992,62.67039,56.27457
842122.3,387.8225,300.1077,62.71985,56.31943
842138.8,388.4441,300.5988,62.75721,56.36264
842155.5,389.0751,300.8581,62.79504,56.38543
842171.6,389.4685,301.0686,62.81858,56.40389
842187.3,389.8561,301.233,62.84173,56.41831
842204.6,390.0243,301.2937,62.85176,56.42363
842222.3,390.1664,301.4103,62.86024,56.43385
842238.3,390.5047,301.4478,62.88039,56.43713
842253.5,390.9662,301.5924,62.90784,56.44978
842272,391.3953,301.9527,62.93332,56.48129
842290.1,391.8517,302.1463,62.96036,56.49819
842305.3,392.5798,302.4934,63.00341,56.52847
842323.8,393.4473,302.7957,63.05453,56.55479
842341.4,394.4726,303.2621,63.11471,56.59533
842356.3,395.6886,303.8067,63.18578,56.64256
842372.8,397.3972,304.4902,63.28504,56.70166
842390.9,398.8129,305.0316,63.36677,56.74835
842405.9,399.9977,305.4021,63.43482,56.78024
842425.1,400.8277,305.7059,63.48229,56.80634
842439.9,401.1604,306.0111,63.50128,56.83253
842456.3,401.4427,306.1463,63.51737,56.84412
842473.5,401.4587,306.0299,63.51828,56.83414
842495.9,401.2306,305.9127,63.50528,56.82409
842507.8,401.0877,305.7245,63.49713,56.80794
842523.3,401.0154,305.468,63.49301,56.7859
842539.7,400.8551,305.3223,63.48386,56.77337
842557.9,400.7701,305.2236,63.479,56.76489
842578.1,400.769,305.1208,63.47894,56.75604
842588.9,400.8787,305.1231,63.48521,56.75624
842605.5,401.1067,305.2341,63.49822,56.76579
842624.1,401.1748,305.3603,63.50211,56.77664
842638.8,401.1973,305.5066,63.50339,56.78922
842659.6,401.2173,305.5679,63.50452,56.79449
842675,401.104,305.6299,63.49807,56.79982
842688.8,400.963,305.7461,63.49002,56.8098
842705.1,400.6844,305.6906,63.47411,56.80503
842722.4,400.3975,305.7143,63.45771,56.80706
842742.5,400.2064,305.6006,63.44677,56.7973
842757.8,399.8986,305.4189,63.42913,56.78168
842771.7,399.6478,305.3567,63.41476,56.77634
842788.3,399.3414,305.264,63.39716,56.76836
842804.9,398.9165,305.0349,63.37274,56.74864
842822.2,398.4389,304.943,63.34523,56.74072
842840.1,397.8982,304.9722,63.31401,56.74324
842856.9,397.433,304.7833,63.28711,56.72696
842873.9,396.7016,304.6428,63.24471,56.71484
842890.5,395.9686,304.5401,63.20209,56.70598
842905.9,395.1206,304.2787,63.15263,56.68339
842924.6,394.139,304.2213,63.09516,56.67843
842938.4,392.9066,304.2391,63.02269,56.67997
842954.6,391.6192,304.1181,62.94659,56.66951
842971,390.0233,304.0551,62.85171,56.66406
842988,388.124,304.248,62.73798,56.68074
843005.8,386.5961,304.5482,62.64586,56.70667
843021.9,384.5752,305.2613,62.52312,56.76813
843039,382.3062,305.8007,62.38409,56.81448
843058.7,380.7439,306.0072,62.28761,56.8322
843076.3,378.2372,306.2807,62.13151,56.85563
843091.8,375.6197,306.7563,61.96677,56.89632
843109.5,373.1638,307.3405,61.81058,56.94617
843128.8,370.1396,308.0323,61.61602,57.00504
843143.4,367.9771,308.4637,61.47539,57.04166
843154.9,364.9493,308.8071,61.27632,57.07074
843173,362.1779,308.9552,61.09187,57.08328
843188.8,359.4064,308.6695,60.90524,57.05909
843205.3,356.8145,308.4619,60.7287,57.0415
843222.5,353.3794,308.0625,60.4917,57.00761
843249.7,350.043,307.5403,60.25815,56.9632
843260.2,347.8576,306.9573,60.10334,56.91349
843271.2,344.9563,306.3646,59.89554,56.86282
843289.9,342.0691,305.6353,59.68615,56.80028
843309.6,338.2561,304.6409,59.40553,56.71468
843328.9,335.2767,303.8802,59.18299,56.64893
843338.8,331.6482,303.6411,58.90797,56.62821
843354.8,328.0422,303.2273,58.63027,56.59231
843370.8,323.663,302.8837,58.28698,56.56244
843387.5,320.5812,302.6145,58.04132,56.53901
843406.9,316.6682,302.159,57.72448,56.4993
843424.3,313.0297,302.4275,57.4248,56.52272
843441.9,309.9424,302.2909,57.16661,56.5108
843458.9,307.048,301.8586,56.92123,56.47307
843473.9,303.8114,301.7523,56.64296,56.46377
843490.3,300.5871,300.9386,56.36161,56.39249
843508.8,297.826,299.0605,56.11734,56.22694
843524.2,295.7644,298.2673,55.9329,56.15659
843540.1,294.1909,297.7279,55.79094,56.1086
843556.7,291.4249,297.339,55.53885,56.07393
843572.3,288.4858,297.2182,55.2674,56.06314
843590.2,286.118,297.1253,55.04597,56.05484
843606.5,283.8285,296.855,54.82953,56.03068
843624.6,281.3815,296.6143,54.59559,56.00914
843642,279.2855,296.506,54.39305,55.99945
843666.8,276.6434,296.4963,54.13486,55.99858
843679.3,275.0544,296.6265,53.97801,56.01023
843690.1,273.0654,296.6003,53.78001,56.00789
843707.5,271.0236,296.631,53.57478,56.01064
843726.3,269.5216,296.8756,53.42253,56.03252
843740.9,268.1684,297.0439,53.28443,56.04757
843756.9,267.2515,297.1364,53.19033,56.05583
843773,266.4188,297.3841,53.10453,56.07795
843790.4,265.4583,297.5181,53.00511,56.0899
843807.1,264.5345,297.7909,52.90907,56.11421
843824.7,263.5843,298.0109,52.80984,56.13379
843841.6,262.7769,298.0246,52.72517,56.13501
843859.4,261.9126,298.0064,52.63416,56.13339
843874.2,260.8553,297.8033,52.5223,56.11531
843889.5,259.6538,297.6951,52.3945,56.10567
843906.1,258.3242,297.5204,52.25222,56.0901
843922.6,256.6382,297.5033,52.07046,56.08858
843941.4,254.5801,297.4463,51.84656,56.0835
843960.9,252.7367,297.4261,51.64411,56.0817
843975.9,250.7055,297.4768,51.41892,56.08622
843990.4,248.0281,297.7979,51.11867,56.11483
844009.5,245.3429,298.0299,50.81358,56.13548
844027.8,242.896,298.1374,50.53204,56.14504
844043.2,239.7802,298.1691,50.16861,56.14786
844057.8,236.6227,298.2236,49.79458,56.15271
844073.4,233.5408,298.3473,49.42386,56.16369
844092.3,230.6909,298.3198,49.07599,56.16125
844109.8,228.2459,298.196,48.77361,56.15025
844125.8,225.4682,298.2849,48.4256,56.15815
844144.2,223.1464,298.4102,48.131,56.16928
844159.9,220.8034,298.4474,47.83025,56.17258
844175.7,218.5417,298.4714,47.53658,56.17472
844192.9,216.5534,298.5826,47.27568,56.18459
844209,214.2645,298.8545,46.97211,56.20869
844225.6,212.1808,299.0371,46.69271,56.22486
844243.5,210.4015,299.2367,46.45184,56.24253
844259.4,208.8264,299.3566,46.2368,56.25314
844277.1,207.1887,299.487,46.01142,56.26466
844292.9,205.6184,299.5593,45.79358,56.27105
844309.4,204.3061,299.8325,45.61021,56.29516
844326.5,203.5397,299.869,45.50257,56.29838
844344.6,202.6999,299.8066,45.38413,56.29288
844358.8,201.4763,299.797,45.21069,56.29203
844375.7,200.3105,299.7482,45.04445,56.28773
844394.7,199.8233,300.1805,44.97468,56.32584
844411.8,197.8176,300.5771,44.68568,56.36074
844429.1,195.9215,300.4146,44.4098,56.34645
844444.2,195.1917,300.0159,44.30291,56.31134
844460.3,195.2368,299.672,44.30953,56.281
844475.1,195.2685,299.5582,44.31418,56.27095
844491.8,195.628,299.4582,44.36686,56.26212
844507.8,196.95,299.2653,44.55976,56.24506
844524.6,198.8558,298.9315,44.83564,56.21552
844541.9,200.0599,298.7076,45.00858,56.19567
844558.6,201.327,298.4139,45.18946,56.16961
844574.2,202.9781,298.2038,45.42343,56.15095
844591,204.0891,298.0648,45.57978,56.13859
844607.9,204.8727,297.866,45.68953,56.1209
844624.8,205.7132,297.5813,45.80679,56.09554
844641.4,206.4442,297.2733,45.90836,56.06807
844657.7,206.9353,297.0518,45.97638,56.04828
844673.8,207.3975,296.8608,46.04025,56.0312
844690.5,207.7697,296.5905,46.09159,56.00701
844708.4,208.1762,296.1256,46.14754,55.96534
844724.4,208.5253,295.7466,46.1955,55.93129
844745,208.8987,295.528,46.24671,55.91164
844758.4,209.3156,295.2025,46.30377,55.88232
844773.1,209.8863,294.7861,46.38169,55.84475
844790.3,210.6929,294.0685,46.49144,55.77985
844809.4,211.4348,293.4509,46.59198,55.7238
844827.5,212.2887,292.787,46.70726,55.66339
844844.4,212.95,292.3218,46.79619,55.62094
844857.4,213.705,291.7914,46.89737,55.57244
844873.1,214.4333,291.3102,46.99462,55.52832
844889.9,215.0953,290.512,47.08269,55.45493
844906.4,216.0112,289.5536,47.20408,55.36644
844923.6,216.9151,288.7624,47.32333,55.2931
844942.5,217.7709,288.1465,47.43575,55.23582
844959.3,219.0208,287.3576,47.59906,55.1622
844975.3,220.6797,286.5522,47.81427,55.08676
844993.4,222.6753,285.6269,48.07081,54.99974
845009.3,225.5718,284.4803,48.43866,54.89139
845026.3,228.3081,283.2643,48.78134,54.77583
845043.6,231.4958,281.4407,49.17473,54.60128
845061.9,233.7866,280.1534,49.45364,54.47717
845078.6,235.6479,279.3652,49.67794,54.40079
845094.8,237.5227,279.1591,49.90179,54.38078
845111.9,239.4008,278.9801,50.12398,54.36337
845127.8,241.5294,278.5717,50.37332,54.32362
845143.2,244.029,277.8192,50.66282,54.25016
845162.8,246.3582,277.0918,50.92941,54.17891
845179.5,249.1116,276.4719,51.24066,54.11799
845194,251.6389,275.644,51.52268,54.03635
845210,253.9906,274.6322,51.78202,53.93614
845225.9,256.6398,273.4912,52.07063,53.82256
845246.1,258.8683,272.7199,52.31055,53.74543
845260.3,261.1331,271.6194,52.55175,53.63488
845278.9,262.5991,270.6891,52.70648,53.54097
845291.8,264.085,269.6672,52.86219,53.43734
845309.3,265.0617,268.7803,52.96394,53.34699
845330.2,265.6952,267.8786,53.02967,53.25473
845344.8,266.0657,267.0206,53.06804,53.16657
845358.3,266.3701,266.2401,53.09949,53.08607
845374.7,266.3866,265.533,53.1012,53.01287
845391.9,266.3694,264.7956,53.09943,52.93626
845414.3,266.5018,264.195,53.11309,52.87368
845428.3,266.5189,263.7003,53.11485,52.82198
845443.8,266.6669,263.2068,53.13012,52.77029
845461.4,267.0574,262.6926,53.17036,52.71631
845476.1,267.485,262.2586,53.21434,52.67064
845492.5,267.9327,261.8446,53.26028,52.62698
845513.1,268.5953,261.2397,53.32809,52.56304
845531.3,268.9607,260.9855,53.3654,52.53612
845541.4,269.4737,260.6638,53.41766,52.50199
845558.4,269.8376,260.3618,53.45465,52.46991
845574,270.3957,259.9871,53.51126,52.43003
845590.6,270.9714,259.8593,53.56951,52.41642
845614.9,271.4791,259.7897,53.62074,52.409
845625.6,272.0289,259.9871,53.67608,52.43003
845644.1,272.4338,260.054,53.71674,52.43715
845661.7,272.9282,260.172,53.76628,52.44971
845679.4,273.5053,260.3035,53.82397,52.4637
845696,274.0054,260.4491,53.87383,52.47918
845712.3,274.3539,260.783,53.90849,52.51463
845728.8,274.7103,261.0416,53.9439,52.54206
845746.1,275.1358,261.4242,53.98608,52.58256
845762.3,275.9077,261.6241,54.0624,52.60369
845779.6,276.8397,261.7931,54.15416,52.62154
845799.8,277.914,262.0942,54.25943,52.65331
845819.9,278.6307,262.3084,54.32936,52.67589
845830.8,279.6065,262.5916,54.4242,52.70569
845844.6,281.6101,262.5471,54.61757,52.701
845865.3,282.8078,262.5443,54.73227,52.70071
845879.4,284.577,262.7696,54.90054,52.7244
845897.2,288.113,263.4395,55.2327,52.79468
845921.6,291.8226,263.6988,55.57529,52.82183
845943.3,294.9344,264.2717,55.85814,52.88168
845955.6,296.3933,264.7905,55.98935,52.93573
845964.4,298.4955,265.7035,56.17685,53.03054
845982.1,300.3473,266.6178,56.34052,53.12506
845996.6,302.6734,267.3352,56.54414,53.19894
846014.4,304.256,267.7003,56.68143,53.23644
846028.7,306.2068,268.0156,56.8493,53.26877
846045.6,308.4535,268.3339,57.04079,53.30136
846061.6,310.7386,268.508,57.23355,53.31917
846079.2,313.65,268.3636,57.47624,53.3044
846094.9,316.6404,268.3315,57.72221,53.30111
846114.9,319.6395,268.4813,57.96558,53.31644
846129.6,323.0621,268.7376,58.23934,53.34263
846147.6,326.7001,268.5862,58.52577,53.32716
846162.8,330.7068,267.8906,58.83591,53.25595
846179.1,334.1536,267.7103,59.09834,53.23746
846195.4,337.2833,268.2579,59.33319,53.29358
846211.7,340.5815,269.5571,59.57722,53.42615
846227.1,344.1036,270.4015,59.83398,53.51186
846243.1,347.5181,270.9369,60.07916,53.56602
846261.8,350.3559,271.121,60.2802,53.58462
846279.3,352.592,271.3457,60.43689,53.6073
846295.1,354.9153,271.5532,60.5981,53.6282
846312.1,357.5231,272.1436,60.77716,53.68761
846329.5,359.8727,272.9398,60.93679,53.76744
846345.4,362.4004,273.6202,61.10676,53.83543
846362.9,364.8008,273.7893,61.26649,53.85229
846380.2,366.9445,273.9662,61.40778,53.86992
846395.4,369.7401,274.2617,61.59013,53.89933
846414.3,371.8551,274.7272,61.72668,53.94557
846427.8,374.4222,275.2748,61.89082,53.99984
846444.6,376.684,275.5334,62.03397,54.02543
846464.9,378.6369,275.7801,62.15652,54.0498
846481.5,379.7128,275.9541,62.2236,54.06697
846497.4,380.4518,276.2983,62.26951,54.1009
846511.1,381.0255,276.8828,62.30505,54.15839
846528.2,381.4971,277.1821,62.33421,54.18777
846544.9,381.6395,277.4998,62.343,54.21891
846561.7,381.4301,278.0435,62.33007,54.27208
846578.9,381.3739,278.4272,62.3266,54.30953
846595.4,381.2281,278.6077,62.31759,54.32713
846611.2,381.0243,278.8703,62.30498,54.35269
846630,380.8697,279.1462,62.29541,54.37952
846645.4,380.4718,279.5804,62.27075,54.42168
846663.4,380.1942,279.6374,62.25352,54.4272
846679.1,380.0894,279.5786,62.24701,54.4215
846695.3,379.976,279.3717,62.23997,54.40142
846710.3,379.7641,279.5011,62.22679,54.41398
846727.7,379.6671,279.7592,62.22076,54.439
846743.8,379.3969,280.041,62.20393,54.46629
846761.8,379.0989,280.2113,62.18536,54.48276
846777.8,378.6101,280.3645,62.15484,54.49757
846793.4,378.0167,280.4469,62.1177,54.50553
846811.3,377.5023,280.4617,62.08545,54.50696
