Time Stamp(ms),Intersection,,Angle,
,x,y,x,y
1324367,321.4948,249.834,58.1145,51.32163
1324385,321.4428,249.7511,58.11035,51.31236
1324404,321.2965,249.6409,58.09864,51.30001
1324422,321.1559,249.4682,58.08739,51.28066
1324440,320.9449,249.3284,58.0705,51.26499
1324458,320.6401,249.1986,58.04605,51.25042
1324474,320.1369,249.3115,58.00563,51.26309
1324494,319.7925,249.9124,57.97791,51.3304
1324513,319.6084,250.692,57.96307,51.41742
1324534,319.5961,251.432,57.96208,51.49973
1324553,319.6648,251.9367,57.96762,51.55569
1324585,319.7704,252.3124,57.97613,51.59726
1324603,319.8298,252.5276,57.98092,51.62104
1324617,319.796,252.7248,57.9782,51.6428
1324628,319.7426,252.8959,57.9739,51.66167
1324653,319.5172,252.9221,57.95572,51.66455
1324670,319.303,252.8754,57.93844,51.65941
1324691,319.0465,252.7553,57.91772,51.64617
1324710,318.8259,252.6935,57.89989,51.63934
1324726,318.5113,252.5103,57.87441,51.61913
1324744,317.9698,252.2434,57.8305,51.58963
1324765,317.1216,252.1281,57.76148,51.57687
1324787,316.0744,251.9665,57.67591,51.55899
1324805,314.746,251.9499,57.56678,51.55716
1324824,312.9978,251.892,57.42215,51.55074
1324842,310.5929,251.8193,57.22131,51.54268
1324863,308.2253,251.5998,57.02142,51.51835
1324879,305.9377,251.3293,56.82623,51.48833
1324898,303.6591,250.7789,56.62976,51.4271
1324920,301.3269,250.3499,56.42654,51.37928
1324940,298.9803,250.018,56.21984,51.3422
1324960,297.0295,249.6304,56.04628,51.29883
1324978,295.098,249.3611,55.8729,51.26865
1324995,292.7144,248.8615,55.65678,51.21256
1325018,289.7179,248.2158,55.38165,51.13985
1325037,287.1995,247.6647,55.14742,51.07762
1325055,285.6052,247.0845,54.9977,51.01191
1325074,284.1395,246.4389,54.85906,50.93859
1325093,283.4659,246.2885,54.79503,50.92148
1325109,282.9101,246.3191,54.74204,50.92495
1325129,283.0386,246.5829,54.75431,50.95496
1325148,283.7485,247.0953,54.82192,51.01314
1325169,284.6869,247.8346,54.91095,51.09682
1325189,285.6934,248.2868,55.00602,51.14786
1325211,286.3776,248.5288,55.07038,51.17512
1325227,286.3158,248.5646,55.06457,51.17916
1325244,286.0549,248.4185,55.04004,51.1627
1325262,285.7553,248.2891,55.01184,51.14811
1325283,285.4716,248.043,54.9851,51.12036
1325302,285.0984,247.9481,54.94987,51.10964
1325322,284.486,248.0029,54.89193,51.11583
1325342,284.4679,247.9193,54.89021,51.10639
1325360,284.6822,247.7545,54.91051,51.08776
1325380,284.6939,247.7563,54.91162,51.08798
1325402,284.7867,247.8496,54.92039,51.09852
1325417,285.0783,248.0113,54.94798,51.11678
1325441,285.4052,248.2473,54.97884,51.1434
1325458,285.4839,248.5291,54.98627,51.17516
1325473,285.545,248.7989,54.99202,51.20552
1325495,285.7542,249.0003,55.01174,51.22816
1325513,285.7742,249.2274,55.01363,51.25366
1325529,285.8373,249.4437,55.01957,51.27792
1325549,285.9038,249.6491,55.02583,51.30093
1325568,285.8338,249.9073,55.01924,51.32983
1325589,285.6707,250.2604,55.00388,51.36928
1325609,285.6028,250.513,54.99747,51.39747
1325626,285.5743,250.6259,54.99479,51.41006
1325645,285.4665,250.7983,54.98462,51.42927
1325665,285.103,250.8481,54.95031,51.43481
1325687,284.8347,250.9274,54.92495,51.44364
1325706,284.5483,250.8769,54.89783,51.43801
1325725,284.1951,250.8297,54.86434,51.43276
1325743,283.9924,250.8135,54.8451,51.43096
1325761,283.7026,250.8567,54.81756,51.43577
1325779,283.3539,250.9726,54.78436,51.44867
1325798,283.0525,251.2073,54.75563,51.47476
1325820,282.8592,251.3092,54.73718,51.48609
1325839,282.5928,251.6281,54.71173,51.52148
1325859,282.5133,251.9917,54.70413,51.56178
1325878,282.6389,252.5254,54.71613,51.62079
1325896,282.9302,253.3572,54.74396,51.71246
1325915,283.1706,254.1546,54.7669,51.79999
1325936,283.8484,254.8776,54.83142,51.87906
1325954,284.3351,254.9611,54.87762,51.88818
1325975,284.6567,254.699,54.90809,51.85956
1325996,284.7366,254.5196,54.91566,51.83995
1326014,284.6996,254.5361,54.91216,51.84175
1326030,284.6507,254.5187,54.90752,51.83985
1326052,284.3264,254.4041,54.87679,51.82731
1326069,284.1272,254.183,54.8579,51.8031
1326088,283.7869,253.9847,54.82557,51.78137
1326109,283.3991,253.9139,54.78867,51.77361
1326129,283.1761,253.7484,54.76742,51.75545
1326144,282.8954,253.6416,54.74064,51.74371
1326163,282.7921,253.6138,54.73078,51.74067
1326183,282.7746,253.6194,54.7291,51.74128
1326203,282.7921,253.656,54.73078,51.7453
1326230,282.8447,253.6604,54.7358,51.74578
1326247,283.0119,253.6108,54.75176,51.74033
1326264,283.111,253.6528,54.76122,51.74495
1326282,283.2283,253.7195,54.7724,51.75227
1326304,283.2945,253.9076,54.77871,51.77291
1326319,283.3076,254.1723,54.77996,51.80193
1326337,283.3587,254.4404,54.78482,51.83128
1326358,283.402,254.6599,54.78895,51.85529
1326377,283.5379,254.8278,54.80189,51.87362
1326396,283.6171,254.9069,54.80943,51.88226
1326414,283.703,255.1091,54.81759,51.90432
1326435,283.5934,254.8094,54.80716,51.87162
1326453,283.6079,254.8366,54.80855,51.87459
1326475,283.5396,254.8656,54.80205,51.87775
1326498,283.4825,254.9142,54.79662,51.88306
1326515,283.4463,255.0279,54.79317,51.89546
1326534,283.4235,255.1408,54.791,51.90778
1326551,283.4057,255.2755,54.7893,51.92247
1326571,283.3006,255.5484,54.77929,51.95218
1326591,283.127,255.7311,54.76273,51.97205
1326613,282.9061,255.987,54.74166,51.99986
1326630,282.8134,256.1317,54.73281,52.01556
1326647,282.7558,256.3352,54.72731,52.03763
1326662,282.6905,256.6189,54.72107,52.06836
1326682,282.5913,257.0059,54.71159,52.11022
1326695,282.5507,257.4393,54.7077,52.15701
1326712,282.6247,257.9801,54.71478,52.21524
1326732,283.0553,258.4553,54.7559,52.26629
1326752,284.7708,258.7841,54.91889,52.30154
1326772,286.8607,259.7084,55.11569,52.40033
1326792,289.5518,261.1637,55.36628,52.55499
1326811,292.1614,263.2583,55.60629,52.7757
1326830,294.2807,265.8504,55.79906,53.04575
1326847,296.4336,269.498,55.99296,53.42013
1326866,298.2303,273.4532,56.15329,53.81876
1326886,299.9964,278.7377,56.30961,54.33978
1326907,301.6579,283.8236,56.45551,54.82906
1326927,303.7572,289.2638,56.63827,55.33962
1326946,306.316,295.0533,56.85866,55.86886
1326965,308.8101,300.8535,57.071,56.38501
1326982,311.0909,305.8256,57.26308,56.81662
1327003,313.4988,309.229,57.46371,57.10643
1327022,316.7466,312.397,57.73088,57.37218
1327043,319.2524,314.5824,57.93435,57.55329
1327063,321.0391,316.5128,58.07804,57.71178
1327079,322.2693,318.1749,58.17631,57.84714
1327098,323.2372,319.3599,58.25323,57.94303
1327115,324.2399,320.8869,58.33258,58.06584
1327133,324.0273,321.8401,58.31579,58.14208
1327156,323.8815,322.54,58.30426,58.19786
1327175,323.6054,322.9274,58.28242,58.22865
1327192,323.1234,323.4331,58.24421,58.26877
1327212,323.5671,324.3627,58.27938,58.34227
1327231,323.6311,325.3718,58.28445,58.42173
1327249,323.9649,326.5995,58.31086,58.51791
1327267,324.1364,327.9613,58.32441,58.62399
1327290,324.6045,329.4833,58.36135,58.74179
1327307,324.8013,330.5933,58.37685,58.8272
1327326,324.9058,331.996,58.38508,58.93453
1327345,324.604,333.6197,58.36131,59.05795
1327365,324.3433,334.6832,58.34074,59.1383
1327382,324.1815,335.4812,58.32797,59.19836
1327403,323.8907,336.3037,58.30499,59.26003
1327421,323.3581,336.8495,58.26282,59.30083
1327443,323.2086,337.3642,58.25097,59.33921
1327462,322.8825,337.7458,58.22509,59.36763
1327480,322.5717,338.2734,58.20037,59.40682
1327496,322.2413,338.8864,58.17407,59.45224
1327518,322.2704,339.6731,58.17639,59.51036
1327534,323.1274,340.8763,58.24453,59.59886
1327552,324.9974,342.8989,58.3923,59.7466
1327572,327.731,345.9113,58.6061,59.96423
1327592,330.6928,349.026,58.83483,60.18629
1327610,333.1105,351.2851,59.01934,60.34549
1327629,335.5946,353.6293,59.20687,60.50906
1327648,337.4376,355.9329,59.34468,60.66821
1327666,338.8772,358.1544,59.45156,60.82021
1327684,339.9919,359.9751,59.53386,60.94371
1327705,340.2198,361.6076,59.55063,61.05365
1327724,340.5472,362.94,59.5747,61.1428
1327742,340.1417,363.6542,59.54489,61.19039
1327762,339.3167,363.7632,59.48405,61.19765
1327782,338.3255,363.8555,59.41068,61.20378
1327798,337.3034,363.9223,59.33469,61.20822
1327815,336.3169,363.742,59.26101,61.19624
1327835,335.6065,363.7489,59.20777,61.19669
1327854,334.934,363.5295,59.1572,61.18209
1327876,334.4539,363.3203,59.12101,61.16817
1327893,334.0172,362.964,59.08802,61.14441
1327915,333.5395,362.5707,59.05187,61.11814
1327932,332.9208,361.9957,59.00493,61.07967
1327950,332.2425,361.3763,58.95332,61.03811
1327968,331.2329,360.3084,58.87622,60.96622
1327989,330.0176,359.0785,58.78295,60.88301
1328007,328.4113,357.5014,58.6589,60.77568
1328026,326.539,355.7767,58.51319,60.65747
1328045,324.5837,353.6498,58.35971,60.51048
1328065,321.7321,350.6449,58.13346,60.30053
1328083,318.8069,347.9584,57.89835,60.11051
1328099,315.01,344.7666,57.58852,59.88187
1328120,311.5345,341.7792,57.30021,59.66498
1328139,308.5299,339.1612,57.04727,59.47257
1328157,304.9242,335.9834,56.7391,59.23603
1328185,301.5968,333.0087,56.45017,59.0116
1328200,299.1962,330.7014,56.23895,58.83549
1328217,295.8043,328.3281,55.93649,58.65245
1328235,294.2938,326.0052,55.80024,58.47142
1328252,291.882,324.5272,55.58073,58.35525
1328270,290.8901,322.6506,55.48973,58.20665
1328291,290.7333,321.017,55.47531,58.07627
1328313,290.2931,319.6869,55.43476,57.9694
1328329,290.5923,318.213,55.46233,57.85024
1328348,291.2639,316.7104,55.52407,57.72793
1328369,291.9809,315.7095,55.58978,57.646
1328388,292.113,314.7747,55.60186,57.56914
1328405,292.0888,314.1418,55.59965,57.51692
1328426,292.0113,313.4758,55.59256,57.46181
1328447,291.5531,312.6889,55.5506,57.39648
1328465,291.1214,311.8036,55.51099,57.3227
1328484,290.8321,310.3459,55.4844,57.20056
1328502,290.4279,308.8575,55.44719,57.07502
1328524,290.0403,307.1924,55.41143,56.93355
1328537,289.357,304.896,55.34824,56.73667
1328557,288.4238,302.6557,55.26163,56.5426
1328579,287.1595,300.9976,55.14368,56.39767
1328597,285.8105,299.078,55.01704,56.22849
1328616,284.3147,296.8017,54.87569,56.02592
1328633,282.3679,294.5311,54.69022,55.82172
1328655,280.8067,292.3912,54.54025,55.62728
1328671,279.2932,290.295,54.3938,55.43494
1328690,278.1643,287.984,54.28388,55.22068
1328709,277.5181,285.3972,54.2207,54.97808
1328729,277.1535,283.0096,54.18496,54.75154
1328749,277.1283,280.661,54.18249,54.5262
1328768,277.3432,278.5997,54.20356,54.32635
1328786,276.1495,276.4665,54.08624,54.11746
1328804,275.8786,275.2021,54.05952,53.99264
1328824,274.7798,274.3638,53.9508,53.90948
1328845,274.4059,273.2455,53.91366,53.79802
1328864,274.6722,271.9613,53.94011,53.66928
1328883,274.5953,271.0168,53.93248,53.57409
1328902,274.8615,270.1539,53.95889,53.48676
1328920,275.4336,269.215,54.01556,53.39132
1328939,275.6765,268.389,54.03956,53.307
1328958,275.0067,267.3948,53.97329,53.20506
1328979,274.6634,266.5603,53.93924,53.11913
1328998,273.9429,265.7643,53.8676,53.03683
1329018,273.1912,265.1273,53.79259,52.97075
1329037,272.5325,264.3593,53.72664,52.89082
1329055,271.8221,263.5466,53.65528,52.8059
1329074,270.9054,262.9054,53.56284,52.73866
1329093,270.0325,262.2529,53.47444,52.67004
1329115,269.0063,261.2721,53.37004,52.56647
1329142,268.4028,260.6332,53.30841,52.49874
1329154,267.8291,260.2825,53.24965,52.46148
1329170,267.8473,260.0124,53.25151,52.43273
1329190,268.2878,259.6737,53.29665,52.39663
1329207,268.8918,259.3831,53.35836,52.36561
1329227,269.4977,259.1789,53.4201,52.34378
1329248,270.1006,258.6964,53.48135,52.29214
1329267,270.1842,258.312,53.48983,52.2509
1329286,270.4334,258.0716,53.51509,52.22508
1329305,270.5655,257.6672,53.52847,52.18156
1329324,270.4167,257.3591,53.5134,52.14836
1329344,270.3488,257.0375,53.50652,52.11364
1329363,270.5551,256.2192,53.52741,52.02505
1329382,270.4121,255.4329,53.51293,51.93961
1329402,270.3915,254.7954,53.51085,51.87009
1329421,270.3009,253.9384,53.50167,51.77629
1329440,270.226,253.2063,53.49408,51.69586
1329456,270.0692,252.2421,53.47817,51.58949
1329476,269.7233,251.1392,53.44304,51.46719
1329494,269.4052,250.0691,53.41069,51.34792
1329515,269.6583,249.0015,53.43643,51.22829
1329535,271.0215,247.737,53.57457,51.08579
1329552,271.0673,246.6574,53.5792,50.96344
1329574,271.5099,245.6833,53.62385,50.85248
1329590,272.648,244.6559,53.73822,50.73487
1329608,273.2271,243.6805,53.79618,50.62267
1329629,274.1544,242.985,53.88865,50.54234
1329650,275.1833,242.1393,53.99079,50.44429
1329677,276.1534,241.4978,54.08662,50.36964
1329688,276.9906,241.0931,54.16898,50.32242
1329705,277.7375,240.6154,54.24218,50.26657
1329722,278.2409,240.1729,54.29136,50.21472
1329746,278.1113,240.1332,54.27871,50.21006
1329762,277.5301,240.4236,54.22187,50.24411
1329783,276.6565,240.6631,54.13615,50.27215
1329805,275.5849,240.6808,54.03051,50.27423
1329822,274.3235,240.6614,53.90547,50.27196
1329843,273.2523,240.6777,53.79869,50.27387
1329860,271.9123,240.6039,53.66436,50.26522
1329878,270.6382,240.5004,53.53582,50.25311
1329901,269.2677,240.3473,53.39669,50.23517
1329920,268.0572,240.0485,53.27304,50.20012
1329936,266.9547,239.4428,53.15979,50.12892
1329953,265.7494,238.5256,53.03529,50.02069
1329973,264.7109,237.8559,52.92745,49.94136
1329990,263.7303,237.0425,52.82512,49.84465
1330009,262.9185,235.8453,52.74005,49.70161
1330032,262.1256,234.6745,52.65662,49.56089
1330048,261.3559,233.7996,52.57534,49.45521
1330068,260.5132,232.7477,52.486,49.32754
1330088,260.0692,231.2008,52.43877,49.13859
1330107,259.4328,229.6181,52.37092,48.94376
1330124,258.6339,228.2881,52.28544,48.77885
1330143,257.4014,227.1728,52.15292,48.63973
1330163,256.0975,226.3159,52.01186,48.5323
1330183,255.2867,225.014,51.92368,48.36824
1330203,254.8312,222.9501,51.874,48.10594
1330220,254.5095,221.1544,51.83884,47.87552
1330241,254.0302,220.2479,51.78636,47.75842
1330258,253.46,219.5382,51.72377,47.66637
1330276,252.4622,219.2329,51.61382,47.62668
1330298,251.0764,219.4296,51.46021,47.65227
1330318,249.6002,219.7862,51.29546,47.69859
1330336,247.6425,220.4427,51.07511,47.78363
1330357,245.8401,221.2849,50.87037,47.89234
1330372,243.6872,221.5902,50.62345,47.93163
1330390,241.5061,221.6,50.37061,47.93289
1330410,239.8154,222.2013,50.17275,48.0101
1330429,238.2173,222.7634,49.9842,48.08208
1330452,237.3521,222.1144,49.8815,47.99896
1330473,236.4238,220.112,49.77083,47.74083
1330490,235.8062,219.1938,49.69691,47.62159
1330507,235.1854,218.0436,49.62239,47.47147
1330533,234.9096,217.0683,49.58922,47.34349
1330545,235.0596,215.4918,49.60726,47.13531
1330563,235.2856,213.6041,49.63444,46.88387
1330583,235.5391,211.7701,49.66489,46.63731
1330602,235.7215,209.9483,49.68677,46.39014
1330624,235.6322,208.9536,49.67606,46.25423
1330640,235.2311,208.2962,49.62789,46.16403
1330657,234.7613,207.8534,49.57136,46.10312
1330680,234.2737,207.9079,49.51254,46.11062
1330703,233.9457,208.2469,49.47289,46.15726
1330726,233.6624,208.4081,49.43861,46.17941
1330741,233.6486,208.5755,49.43693,46.20239
1330757,233.7012,208.7093,49.44329,46.22075
1330773,233.9834,208.7231,49.47746,46.22264
1330792,234.2431,208.5848,49.50884,46.20366
1330815,234.56,208.3303,49.54708,46.16872
1330834,234.7952,208.2523,49.57544,46.15801
1330853,234.941,208.1904,49.59299,46.14949
1330870,235.0318,208.063,49.60392,46.13197
1330893,235.0957,207.6309,49.61161,46.07246
1330909,235.1971,207.0825,49.6238,45.99675
1330928,235.3221,206.3775,49.63883,45.8991
1330946,235.5636,205.3295,49.66782,45.75332
1330968,235.7954,204.5742,49.69563,45.64777
1330988,236.0911,204.2027,49.73104,45.59571
1331007,236.6047,204.248,49.79243,45.60206
1331026,237.0836,204.7922,49.84955,45.67827
1331048,237.5267,205.3216,49.90226,45.75221
1331064,238.256,205.5446,49.98879,45.78331
1331086,239.0163,205.7194,50.07865,45.80764
1331112,239.664,206.2587,50.15495,45.88261
1331132,239.9861,206.3576,50.1928,45.89634
1331143,240.3577,206.6456,50.23639,45.93627
1331162,240.6554,207.0287,50.27126,45.9893
1331183,241.0715,207.3994,50.3199,46.04052
1331203,241.6695,207.4352,50.38964,46.04546
1331229,242.0957,207.3127,50.43923,46.02855
1331242,242.5565,207.1552,50.4927,46.00679
1331260,243.2453,206.9182,50.57243,45.97401
1331281,243.7621,206.7091,50.63208,45.94507
1331300,244.3704,206.529,50.70208,45.92011
1331320,245.0231,206.1283,50.77697,45.86449
1331339,245.6658,205.8358,50.85048,45.82383
1331358,246.2246,205.6682,50.9142,45.80051
1331378,246.6937,205.2167,50.96756,45.73757
1331396,247.023,204.936,51.00494,45.69838
1331416,247.3676,204.7749,51.04399,45.67585
1331434,247.5757,204.8997,51.06755,45.69331
1331456,247.6771,204.8839,51.07902,45.6911
1331474,247.7467,205.0726,51.08688,45.71746
1331493,247.8526,205.0557,51.09885,45.7151
1331510,247.8997,205.2497,51.10418,45.74218
1331529,248.0543,205.6239,51.12163,45.79435
1331548,248.1449,206.1382,51.13186,45.86587
1331571,248.2138,206.5709,51.13963,45.92591
1331589,248.2137,207.2642,51.13961,46.02185
1331609,248.3189,207.9126,51.15148,46.11128
1331628,248.5256,208.2828,51.17476,46.1622
1331649,248.8489,208.3611,51.21114,46.17295
1331667,249.2695,208.3351,51.25838,46.16938
1331694,249.7183,208.4553,51.30868,46.1859
1331711,250.0273,208.699,51.34325,46.21933
1331724,250.4034,208.8854,51.38524,46.24488
1331745,250.4651,209.1364,51.39213,46.27925
1331760,250.4367,209.3908,51.38896,46.31404
1331779,250.3982,209.2312,51.38466,46.29222
1331797,250.2915,209.1214,51.37276,46.2772
1331819,249.9986,209.3182,51.34004,46.30412
1331840,249.8096,209.4515,51.3189,46.32235
1331860,249.5529,209.6122,51.29016,46.34429
1331878,249.292,209.9547,51.2609,46.39101
1331894,249.1374,210.3688,51.24355,46.44738
1331912,249.0109,211.1305,51.22934,46.55079
1331931,249.1617,211.9446,51.24628,46.66087
1331956,249.3329,212.5925,51.2655,46.74815
1331973,249.7774,213.2355,51.3153,46.8345
1331992,250.1489,213.7359,51.35683,46.9015
1332010,250.5131,214.2689,51.39748,46.97269
1332029,250.8632,214.8299,51.43649,47.04741
1332046,251.0846,215.2639,51.46113,47.10508
1332066,251.3001,215.6835,51.48507,47.16072
1332088,251.5215,216.0471,51.50965,47.20882
1332106,251.6156,216.4913,51.5201,47.26749
1332126,251.8839,216.962,51.54984,47.3295
1332146,252.0113,217.4184,51.56395,47.3895
1332163,252.0736,217.8188,51.57084,47.44203
1332179,252.0872,218.1068,51.57235,47.47973
1332198,251.9706,218.4373,51.55944,47.52296
1332224,251.8662,218.9454,51.54788,47.58925
1332239,251.8739,219.2298,51.54874,47.62627
1332258,251.9555,219.8062,51.55777,47.70118
1332277,252.0755,220.0254,51.57105,47.72961
1332294,252.2825,220.159,51.59395,47.74692
1332311,252.5314,220.2614,51.62145,47.76017
1332331,252.7148,220.4404,51.64169,47.78334
1332350,253.018,220.7105,51.67513,47.81825
1332370,253.298,220.9401,51.70596,47.84789
1332392,253.5427,221.0716,51.73285,47.86485
1332411,253.6502,221.2875,51.74467,47.89267
1332430,253.5318,221.5081,51.73166,47.92108
1332449,253.4461,221.6319,51.72224,47.937
1332466,253.3151,221.6595,51.70783,47.94054
1332488,252.8832,221.5501,51.66027,47.92647
1332506,252.4349,221.5249,51.61079,47.92323
1332526,252.0116,221.8096,51.56399,47.95984
1332545,251.6986,221.9607,51.5293,47.97923
1332564,251.5187,222.1403,51.50935,48.00229
1332581,251.4,222.4016,51.49617,48.03577
1332600,251.5103,222.6831,51.50842,48.07181
1332622,251.7045,223.0609,51.52996,48.12008
1332641,251.9535,223.4592,51.55755,48.17089
1332659,252.3159,223.6373,51.59765,48.19357
1332683,252.7652,223.922,51.64726,48.22979
1332700,253.1753,224.1577,51.69244,48.25974
1332714,253.6047,224.293,51.73967,48.2769
1332736,254.0653,224.1165,51.79021,48.2545
1332755,254.3602,223.9462,51.8225,48.23286
1332780,254.3616,223.9432,51.82266,48.23248
1332794,254.2321,224.0205,51.80848,48.2423
1332812,253.9102,224.2424,51.7732,48.27049
1332831,253.5737,224.507,51.73626,48.30405
1332849,253.2803,224.8657,51.704,48.34948
1332868,252.9624,225.2919,51.669,48.40334
1332887,252.6741,225.8992,51.63721,48.4799
1332907,252.364,227.1417,51.60296,48.63583
1332927,252.1734,228.1497,51.58189,48.76163
1332946,252.0935,229.4176,51.57305,48.91897
1332964,252.0126,230.9274,51.56409,49.10505
1332982,251.9345,232.339,51.55544,49.27777
1333003,252.1254,233.7314,51.57658,49.44695
1333026,252.3762,234.9697,51.60431,49.59645
1333042,252.7261,235.7684,51.64294,49.69239
1333061,253.1008,236.7717,51.68425,49.81237
1333092,253.6953,236.9652,51.74962,49.83544
