Time Stamp(ms),Intersection,,Angle,
,x,y,x,y
565320.9,338.3409,252.4751,59.41182,51.61524
565335.4,339.08,252.6296,59.46657,51.6323
565355.6,339.6431,252.5552,59.50815,51.62408
565370.6,340.0757,252.6364,59.54003,51.63304
565386.8,340.5083,252.831,59.57185,51.65451
565404.2,341.3787,253.0919,59.63568,51.68327
565420.4,342.7528,253.4598,59.73597,51.72374
565436.2,343.7891,253.8717,59.81121,51.76897
565453.2,344.6137,254.3678,59.87084,51.82334
565470.4,345.6671,254.9294,59.94669,51.88472
565486.4,347.0949,255.3044,60.04897,51.92561
565504.9,348.6664,255.5632,60.1608,51.95379
565520.4,350.1772,256.2433,60.26761,52.02766
565537.4,351.4984,257.466,60.36045,52.15988
565552.9,353.4258,259.1779,60.49493,52.34369
565570.3,356.8474,261.3375,60.73095,52.57339
565586.1,359.5668,261.9929,60.9161,52.64263
565607.4,361.3733,261.4299,61.03791,52.58316
565621.1,362.7624,261.1593,61.13095,52.55452
565635.6,364.7673,261.3464,61.26427,52.57433
565651.3,367.6068,261.5668,61.45118,52.59764
565670.6,369.5412,261.725,61.57723,52.61436
565685.1,371.0116,261.7278,61.67237,52.61465
565701.8,372.6857,261.7802,61.77998,52.62018
565720.1,374.4402,262.0782,61.89196,52.65163
565735.1,377.0807,262.6346,62.05895,52.71021
565751.9,379.7347,262.958,62.22496,52.74419
565769.8,381.8993,263.0162,62.35903,52.7503
565785.4,383.8416,263.2168,62.47831,52.77134
565803.3,385.5088,263.576,62.57994,52.80898
565819.9,386.254,264.0733,62.62515,52.86097
565838.9,387.2321,264.4092,62.68428,52.89602
565857.3,387.4975,264.6532,62.70028,52.92144
565873.1,387.3201,264.8474,62.68958,52.94165
565887,386.7947,265.1502,62.65787,52.97313
565902.9,385.7926,265.4984,62.59718,53.00927
565920.1,384.8837,265.7343,62.54192,53.03373
565935.9,383.8094,266.0426,62.47635,53.06564
565952.4,382.3863,266.4744,62.38902,53.11026
565969.1,381.1538,266.783,62.31299,53.1421
565989.3,379.5923,266.9291,62.2161,53.15715
566006.8,378.1784,267.2274,62.12783,53.18785
566019.3,376.6707,267.4999,62.03314,53.21586
566040.8,375.0188,267.6262,61.92871,53.22884
566059.1,373.7112,267.6756,61.84553,53.23391
566073.7,371.9331,267.7296,61.7317,53.23944
566089.9,370.3799,267.7941,61.63157,53.24606
566103.6,369.0222,267.9271,61.54351,53.2597
566119.9,367.6651,268.1332,61.45499,53.28082
566135.7,366.3446,268.3262,61.36837,53.30058
566154.3,365.3404,268.411,61.30217,53.30925
566169.5,364.3851,268.9256,61.23895,53.36181
566185.8,363.414,269.4967,61.1744,53.42
566204.4,362.885,269.9778,61.13914,53.46889
566220.9,362.792,270.5741,61.13293,53.52933
566236.9,362.6386,271.4096,61.12268,53.61373
566252.2,362.5742,272.3322,61.11838,53.70654
566271.4,362.9801,273.5687,61.14548,53.83029
566287.4,363.3535,274.818,61.17038,53.95458
566303.3,363.6459,276.0737,61.18984,54.07877
566320.3,363.9478,277.6115,61.20991,54.22984
566337.1,364.4214,279.4625,61.24135,54.41023
566353,365.1566,280.9855,61.29003,54.55748
566370.8,365.709,282.0636,61.32651,54.66107
566386.8,366.2022,283.2567,61.359,54.7751
566403.5,366.4955,284.5449,61.37829,54.8975
566421.1,366.4824,285.8791,61.37743,55.0235
566437.1,365.8547,287.2483,61.33611,55.15198
566454.4,365.3079,288.5006,61.30003,55.26877
566471.6,364.698,289.6778,61.25969,55.37793
566488.3,363.874,290.755,61.20501,55.4773
566505.3,362.2339,291.7178,61.09562,55.5657
566525.6,360.929,292.6047,61.00804,55.64677
566538.7,358.9107,293.6808,60.87162,55.74469
566559,357.0876,294.4421,60.74739,55.81367
566575.1,355.8062,295.2807,60.6595,55.88936
566592.4,353.4117,295.92,60.49395,55.94687
566608.6,350.5362,296.6055,60.29289,56.00836
566624.1,348.5337,297.0215,60.15139,56.04557
566642.6,347.1689,297.5087,60.05425,56.08906
566657.8,345.0447,298.2254,59.90192,56.15287
566675.5,342.7792,299.2354,59.7379,56.24241
566689.8,341.0794,299.9807,59.61376,56.30823
566708.9,339.796,300.1496,59.51942,56.32312
566724,338.7737,300.2648,59.4439,56.33326
566740.1,337.6666,300.6401,59.36173,56.36627
566757.7,336.5729,301.0172,59.28017,56.39938
566774.7,335.5848,301.4322,59.20613,56.43576
566791.1,335.1404,302.0636,59.17274,56.49097
566808.3,334.9244,302.6476,59.15648,56.54189
566824.7,335.1801,303.6173,59.17572,56.62614
566841.6,335.3253,304.7658,59.18663,56.72545
566860.1,335.8679,306.2415,59.22738,56.85228
566876.7,336.177,307.6092,59.25054,56.96906
566890.5,336.545,310.444,59.27808,57.2088
566917.9,336.8536,312.0914,59.30114,57.34671
566927.4,337.0677,313.7375,59.31712,57.48348
566941.4,337.0255,315.7803,59.31396,57.6518
566959.6,336.4283,317.7385,59.26935,57.8117
566975.8,335.3221,320.2578,59.1864,58.01535
566993.4,333.7249,322.9326,59.06591,58.22906
567008.9,331.5953,323.9148,58.90394,58.3069
567021.4,328.6007,325.8041,58.67358,58.45566
567040.2,327.8782,328.1002,58.61754,58.63477
567068.4,323.9622,327.5436,58.31065,58.59153
567080.6,321.2323,328.0006,58.09351,58.62704
567092.3,320.2372,329.5072,58.0137,58.74363
567107.6,320.1675,330.126,58.00809,58.79129
567123.3,317.2736,330.473,57.77387,58.81796
567140.1,315.0359,331.093,57.59065,58.86551
567158.3,313.9733,331.0447,57.50299,58.86181
567173.5,312.9657,330.677,57.41949,58.83362
567191.9,311.7959,330.3881,57.32205,58.81144
567207.8,310.5958,330.1558,57.22155,58.79358
567224.4,309.7842,329.3062,57.15328,58.72812
567241.3,309.3752,328.4721,57.11878,58.66361
567258.8,309.2853,328.1112,57.11119,58.63563
567274.6,309.5693,327.1437,57.13516,58.56038
567291.2,310.0739,326.1339,57.17768,58.4815
567306.4,310.7674,325.5081,57.23596,58.43243
567323.9,311.7063,324.892,57.31456,58.384
567341.7,312.3826,323.8,57.37098,58.29782
567362.8,313.0441,322.4447,57.426,58.19027
567377.6,313.7641,321.6157,57.48568,58.12416
567391.7,314.5718,321.1097,57.55242,58.08369
567410.6,315.863,320.7597,57.65858,58.05565
567423.8,317.3166,320.2568,57.77737,58.01527
567443.8,318.6886,320.1492,57.88877,58.00662
567459.6,319.8949,321.0463,57.98616,58.07861
567474.6,321.1454,322.413,58.08655,58.18774
567493.7,322.1117,323.3336,58.16375,58.26088
567509.9,322.8807,324.2116,58.22494,58.33035
567525.6,322.6358,325.0481,58.20547,58.39628
567542.1,321.4118,326.2273,58.10787,58.48881
567559.1,320.5985,326.8325,58.04272,58.53611
567577.4,319.5409,327.4625,57.95764,58.58521
567595.1,318.6959,327.7173,57.88937,58.60503
567609.1,318.1399,327.9139,57.84431,58.62031
567623.9,317.9384,327.8013,57.82795,58.61156
567640.8,317.8301,327.8474,57.81915,58.61514
567661.6,317.9254,328.137,57.82689,58.63763
567677.4,318.2048,328.6371,57.84957,58.6764
567691.8,318.7023,328.6606,57.88988,58.67821
567707.7,319.5057,328.1661,57.9548,58.63988
567724,320.6808,327.3447,58.04932,58.57604
567740.8,321.63,326.8976,58.12531,58.54119
567758,322.5484,326.4384,58.19852,58.50533
567773.5,323.2759,325.4706,58.25631,58.42949
567790,323.5489,324.3983,58.27794,58.34509
567806.8,323.5256,323.2831,58.2761,58.25688
567824.2,323.4298,322.4031,58.26851,58.18696
567841.1,323.2867,321.569,58.25716,58.12043
567858,323.1144,320.7414,58.2435,58.05418
567873.8,322.7825,320.1141,58.21713,58.0038
567891.6,323.1376,319.0591,58.24533,57.91874
567907.3,323.9704,318.2556,58.31129,57.85369
567924.4,324.1189,317.9315,58.32302,57.82739
567941.4,324.3986,317.7848,58.34511,57.81547
567957.6,325.0809,317.8888,58.39886,57.82391
567976.6,325.8651,317.3962,58.46044,57.78385
567993.5,326.6783,317.1957,58.52407,57.76752
568011.7,327.6418,316.9669,58.59916,57.74887
568022.8,329.0729,316.6251,58.7101,57.72096
568045.9,330.3687,316.4239,58.80994,57.70451
568061.2,331.8873,316.4913,58.92624,57.71003
568075.8,332.8912,316.6137,59.00268,57.72003
568090.8,333.965,316.8787,59.08408,57.74167
568107.8,334.6674,317.4724,59.13712,57.79005
568126.2,335.2183,318.1696,59.1786,57.84671
568145.1,336.2044,319.0116,59.25259,57.9149
568160,338.6481,320.5341,59.4346,58.03755
568178.8,341.1635,322.4247,59.61992,58.18867
568195.1,344.801,324.2196,59.88435,58.33099
568211,350.0564,325.8118,60.25909,58.45626
568227.7,354.518,326.4147,60.57064,58.50347
568244.4,357.7,327.4525,60.78923,58.58443
568262.5,360.95,328.9135,61.00946,58.69778
568279.6,364.8366,330.5562,61.26886,58.82434
568295.9,369.0661,331.2871,61.54637,58.88037
568315.1,372.1066,330.7128,61.74284,58.83637
568328.6,373.9956,330.2769,61.86366,58.80289
568343.9,376.1549,330.8131,62.00061,58.84406
568360.3,379.0566,331.6058,62.18272,58.90474
568377.9,381.7591,331.4568,62.35038,58.89335
568392.3,383.7713,330.8827,62.47401,58.8494
568411.4,385.1257,330.6535,62.55665,58.83182
568426.1,385.8901,330.4375,62.60309,58.81524
568444.4,386.5682,330.1465,62.64417,58.79287
568461.1,386.7544,329.8554,62.65543,58.77047
568482.1,386.8338,329.2841,62.66023,58.72641
568494.1,386.43,328.5433,62.63581,58.66912
568511.4,385.2943,327.6736,62.56691,58.60163
568528.8,384.5875,327.114,62.52386,58.55806
568548.6,383.9043,326.6213,62.48215,58.51962
568561.4,383.2686,326.7831,62.44322,58.53225
568578.5,382.7235,326.649,62.40976,58.52178
568591.1,382.1037,326.5598,62.37162,58.51481
568610.2,381.7164,326.5374,62.34775,58.51306
568625.6,381.3459,326.5002,62.32486,58.51015
568643.3,381.2707,326.4379,62.32022,58.50529
568659.8,381.3687,326.3036,62.32627,58.49479
568676.2,381.4117,325.9646,62.32893,58.46824
568693.5,381.4561,325.3786,62.33168,58.42226
568710.2,381.5232,324.8432,62.33582,58.38016
568726.4,381.7391,323.9015,62.34915,58.30585
568743.4,381.9902,323.4289,62.36463,58.26843
568759.9,381.9805,323.2373,62.36403,58.25325
568776.3,381.648,322.8607,62.34352,58.22335
568793.6,381.5493,322.5667,62.33743,58.19998
568809.5,381.5378,322.177,62.33672,58.16895
568826.8,381.4751,321.6253,62.33285,58.12493
568845.9,381.6128,320.7745,62.34135,58.05683
568864.2,381.9786,320.3997,62.36391,58.02675
568880,382.2358,320.219,62.37976,58.01223
568896.6,382.3373,319.8786,62.38601,57.98484
568912.4,382.5624,319.7851,62.39986,57.97731
568929.2,382.5784,319.8016,62.40084,57.97865
568944.9,382.4164,319.891,62.39088,57.98584
568961.8,382.3743,319.7911,62.38828,57.9778
568979,382.4441,319.6064,62.39258,57.96291
568994,382.411,319.1809,62.39054,57.92858
569011.4,382.5324,318.7025,62.39801,57.8899
569028.4,382.347,318.3554,62.38661,57.86179
569046.3,382.0592,317.8893,62.36889,57.82396
569064.4,381.8331,317.1469,62.35495,57.76354
569080.5,380.7427,315.3325,62.28754,57.61504
569096.5,378.8456,314.1339,62.16955,57.51627
569110.7,376.3997,313.2458,62.01606,57.44273
569127.8,373.5832,311.1478,61.83736,57.26785
569144.6,370.0119,308.3157,61.60775,57.0291
569164.6,366.7696,306.5435,61.3963,56.87813
569178.4,362.8396,305.3146,61.1361,56.77272
569197.4,359.493,303.5856,60.9111,56.6234
569214.5,356.1778,301.5908,60.68503,56.44964
569229.6,353.2147,300.0476,60.48025,56.31413
569245.9,350.6544,298.5979,60.3012,56.18594
569264.7,348.9253,297.1311,60.17915,56.05536
569277.4,347.4384,295.5059,60.07348,55.90964
569293,346.5118,294.0489,60.00727,55.77806
569309.8,345.5692,292.6807,59.93966,55.6537
569327.1,345.0021,291.4916,59.89885,55.54496
569343.2,345.0964,290.5767,59.90564,55.46089
569359.9,345.0568,289.5629,59.90279,55.36731
569376,344.9931,288.2232,59.8982,55.24296
569404.4,344.7518,286.9265,59.8808,55.12186
569417.6,344.5008,286.0802,59.86268,55.04243
569426.2,344.0854,284.9901,59.83266,54.93964
569443.1,343.3606,283.9306,59.78014,54.83923
569459.9,341.869,282.7155,59.67154,54.72346
569475.6,339.5227,281.5227,59.49927,54.60916
569496.3,337.6994,280.5919,59.36417,54.51953
569513.2,335.2035,279.6773,59.17748,54.43107
569528.5,332.8407,279.0752,58.99884,54.37262
569544.8,330.2603,278.7991,58.80161,54.34577
569563.6,327.8363,279.0161,58.61428,54.36688
569579.1,326.0807,278.9426,58.47733,54.35972
569592.8,324.5263,279.0897,58.35518,54.37403
569611.1,322.6742,279.3404,58.20853,54.39839
569627.6,320.935,280.0834,58.0697,54.47039
569643.3,319.4232,280.3115,57.94814,54.49245
569661.9,318.0639,279.2657,57.83813,54.39113
569677.6,317.4677,277.544,57.78967,54.22324
569693,316.9743,276.238,57.74947,54.09496
569710.9,315.8839,275.3971,57.6603,54.01194
569730.9,314.6587,275.105,57.55958,53.98303
569743.5,313.8964,274.6564,57.49663,53.93854
569764.2,313.4606,273.8481,57.46054,53.85815
569780.9,313.0392,272.5196,57.42559,53.72535
569798.5,312.6725,271.0775,57.39511,53.58023
569813.9,312.5725,269.5671,57.38679,53.42717
569832,313.0822,268.4416,57.42916,53.31237
569847.7,313.5784,267.2997,57.47031,53.19529
569864.4,314.1945,266.5071,57.52127,53.11364
569882.2,314.6888,266.0992,57.56207,53.0715
569898,315.126,265.9531,57.59806,53.05639
569914.3,315.6884,265.9618,57.64427,53.05729
569931.1,316.0732,265.5307,57.67581,53.01263
569949.9,316.3102,264.7455,57.69521,52.93105
569964.8,316.5418,264.1265,57.71415,52.86652
569982.1,317.0467,263.8486,57.75537,52.83749
569997.8,318.0142,263.9418,57.8341,52.84723
570019.1,318.7985,264.106,57.89767,52.86438
570029.9,319.6639,264.1164,57.96755,52.86547
570050.2,320.6443,264.2593,58.04639,52.88038
570066.1,321.2767,264.1847,58.09706,52.8726
570080.9,321.8634,263.9476,58.14394,52.84784
570098.3,322.3669,263.534,58.18407,52.80458
570114.1,322.8695,263.235,58.22405,52.77325
570131.8,323.1161,263.127,58.24363,52.76193
570151.1,323.141,263.2328,58.2456,52.77303
570169,323.3137,263.299,58.2593,52.77996
570181.8,323.5476,263.0879,58.27784,52.75782
570201.9,323.4852,262.9763,58.2729,52.74611
570215.9,323.3897,262.7254,58.26533,52.71976
570229.6,323.2169,262.3273,58.25162,52.67787
570247.9,322.9531,261.7328,58.23069,52.61517
570264.9,322.5359,261.0675,58.19753,52.5448
570280.8,322.0215,260.4782,58.15655,52.48227
570297.4,321.6045,259.8101,58.12327,52.41118
570313.4,320.9829,258.6132,58.07354,52.28322
570331,320.2791,257.2419,58.01707,52.13571
570348.8,319.2755,255.7014,57.93622,51.96882
570367.7,317.9795,253.6996,57.83128,51.75008
570382.2,316.8499,251.956,57.73932,51.55783
570399.5,315.7863,250.4151,57.6523,51.38655
570414.5,314.5008,248.787,57.54656,51.20418
570433.1,313.2218,247.1356,57.44075,51.01771
570448.2,311.7007,245.4622,57.31409,50.82722
570464.9,310.5868,244.0012,57.22079,50.65962
570483.9,309.5414,242.5793,57.13281,50.49535
570498,308.6463,241.0774,57.05713,50.32059
570515.7,307.7586,239.5109,56.98177,50.13694
570531.9,306.8918,238.2851,56.90789,49.99223
570548.3,306.2011,237.1757,56.84881,49.86051
570564.3,305.6826,236.2034,56.80434,49.74448
570581.8,305.7296,235.7368,56.80838,49.6886
570598.3,305.7364,235.0925,56.80896,49.61123
570613.7,305.8463,234.6707,56.8184,49.56044
570630.7,306.0559,234.3967,56.83637,49.52739
570647.2,306.3206,234.0991,56.85905,49.49144
570663.5,306.5656,233.8795,56.88002,49.46489
570681,306.6432,233.756,56.88665,49.44994
570697.9,306.7158,233.4331,56.89286,49.4108
570714.1,306.611,233.141,56.8839,49.37536
570730.8,306.3619,232.8941,56.86259,49.34536
570746.3,306.3728,232.5667,56.86352,49.30552
570764.3,306.5545,232.3422,56.87906,49.27815
570780.4,306.8131,232.2443,56.90118,49.26622
570797.8,307.0731,232.2981,56.92337,49.27278
570812.8,307.2397,232.1341,56.93758,49.25277
570834.4,307.4389,232.0158,56.95456,49.23832
570845.6,307.7161,231.8564,56.97816,49.21885
570863.8,307.799,231.6797,56.9852,49.19724
570880.6,307.9541,231.6564,56.99839,49.1944
570896.6,308.2399,231.7649,57.02267,49.20767
570912.9,308.527,231.8056,57.04702,49.21264
570929.7,308.9398,231.6294,57.08197,49.19109
570947.1,309.2636,231.7198,57.10936,49.20215
570966.9,309.6317,231.797,57.14043,49.21159
570979.6,310.1387,231.9153,57.18314,49.22605
570996.1,310.644,231.974,57.2256,49.23322
571013.8,311.1847,232.2467,57.27094,49.2665
571029.9,311.8452,232.5805,57.32617,49.30719
571052.1,312.9369,232.9401,57.41709,49.35095
571070.1,313.8893,233.1562,57.49605,49.3772
571080.1,314.7936,233.4077,57.5707,49.40773
571100.9,315.5405,233.7683,57.63213,49.45142
571112.5,316.3156,234.1456,57.69565,49.49707
571129.7,317.2139,234.4682,57.769,49.53601
571149.8,317.8278,234.6718,57.81896,49.56056
571166.3,318.159,234.9359,57.84586,49.59238
571183.6,318.4154,235.2149,57.86665,49.62595
571199.6,318.8988,235.4197,57.90578,49.65055
571215.9,319.3721,235.5646,57.94402,49.66795
571233.1,319.9701,235.6688,57.99221,49.68044
571250.4,320.534,235.7047,58.03754,49.68475
571265.3,320.9885,235.8669,58.07399,49.7042
571282.8,321.4373,235.9933,58.10991,49.71933
571299.9,321.9063,236.1646,58.14736,49.73983
571315.3,322.5199,236.3216,58.19625,49.75862
571335.9,322.8768,236.3815,58.22463,49.76577
571350.7,323.0328,236.5309,58.23702,49.78363
571366.4,323.1668,236.5904,58.24765,49.79073
571383.7,323.457,236.6541,58.27066,49.79834
571404.4,323.8101,236.6837,58.29862,49.80187
571420.2,323.9587,236.7758,58.31037,49.81286
571434.9,324.0791,236.9289,58.31989,49.83112
571452.9,324.5141,237.1067,58.35422,49.8523
571481.8,324.9376,237.355,58.38758,49.88185
571502.8,325.3305,237.5406,58.41848,49.90392
571520.3,325.5293,237.7479,58.4341,49.92854
571532.2,325.7607,238.0373,58.45226,49.96287
571541.6,325.9398,238.2994,58.46629,49.99393
571552.2,325.9927,238.6477,58.47044,50.03513
571566.4,326.1347,238.9621,58.48156,50.07226
571584.4,326.3944,239.2214,58.50188,50.10283
571601.9,326.6378,239.4765,58.5209,50.13288
571619.2,326.8086,239.6397,58.53424,50.15209
571633.6,326.8834,239.7174,58.54008,50.16123
571650.8,326.9897,239.8497,58.54837,50.17677
571667.9,327.1054,240.012,58.5574,50.19584
571683.9,327.183,240.0691,58.56344,50.20254
571703.4,327.3157,240.0571,58.57378,50.20113
571721.9,327.409,240.1165,58.58104,50.2081
571735.8,327.6037,240.1889,58.5962,50.21659
571749.4,327.7901,240.3588,58.61069,50.23652
571766.6,328.1111,240.552,58.63562,50.25916
571784,328.3437,240.677,58.65366,50.27378
571800.4,328.5905,240.8908,58.67279,50.29879
571817,328.8514,241.1104,58.69298,50.32444
571834.9,329.1371,241.282,58.71507,50.34448
571853.2,329.4718,241.4006,58.7409,50.35831
571866.1,329.7191,241.5683,58.75997,50.37785
571882.6,329.8813,241.7458,58.77246,50.39853
571899.9,329.997,241.9048,58.78137,50.41703
571915.5,330.1772,241.9068,58.79523,50.41726
571932.4,330.3499,241.8979,58.8085,50.41623
571948.7,330.4917,241.9619,58.8194,50.42366
571965.3,330.5613,242.0345,58.82474,50.43211
571981.3,330.6814,242.0764,58.83396,50.43699
571998.2,330.7595,242.1581,58.83995,50.44647
572017.3,330.7768,242.2111,58.84127,50.45263
572032,330.7672,242.2289,58.84054,50.4547
572063.2,330.7768,242.1549,58.84127,50.4461
572071,330.8168,242.1243,58.84435,50.44255
572083.2,330.7933,242.0639,58.84254,50.43552
572097.9,330.7409,242.0818,58.83852,50.4376
572114.3,330.7283,242.0275,58.83756,50.43129
572131.6,330.7567,242.0335,58.83973,50.432
572152,330.7726,241.9584,58.84095,50.42326
572164.8,330.9272,241.9103,58.85281,50.41767
572184.4,331.0474,241.9907,58.86202,50.42702
572201.8,331.0919,242.1834,58.86543,50.44941
572218.5,331.1961,242.3066,58.87341,50.46372
572233.7,331.3728,242.4924,58.88692,50.48528
572252.3,331.6241,242.7872,58.90614,50.51944
572269.2,331.8543,243.2853,58.92372,50.57705
572282.9,332.1381,243.9115,58.94537,50.64929
572298.8,332.378,244.6672,58.96365,50.73617
572316.4,332.6371,245.3661,58.98336,50.81623
572335.8,332.9471,246.1639,59.00693,50.90728
572350.3,333.092,246.9385,59.01793,50.99536
572369.9,333.2043,247.7708,59.02646,51.08962
572385.3,333.2876,248.6726,59.03278,51.19131
572402,333.4004,249.4119,59.04133,51.27435
572416.9,333.7025,250.4407,59.06421,51.38941
572431.4,334.6541,252.6478,59.13611,51.6343
572464.1,334.8739,253.0497,59.15267,51.67861
572470.8,335.2913,253.6098,59.18408,51.74023
572482.3,335.8164,254.443,59.22351,51.83156
572499.8,336.3004,255.1955,59.25978,51.91375
572515.7,336.6789,256.017,59.28809,52.00311
572532.7,336.6949,256.8134,59.28928,52.08942
572550,336.7198,257.4816,59.29115,52.16156
572566.4,336.5013,258.054,59.27481,52.22318
572591.3,336.4366,258.3019,59.26997,52.24982
572600.1,336.0667,258.5919,59.24228,52.28094
572617.8,335.899,258.9193,59.22971,52.31601
572633.1,335.3984,259.1208,59.19213,52.33757
572650.2,334.891,259.3456,59.15396,52.36161
572667.9,334.3529,259.5161,59.11339,52.37982
572683.3,333.5244,259.6523,59.05072,52.39435
572701.3,332.6953,259.8823,58.98779,52.41887
572715.9,331.8778,260.2389,58.92551,52.45683
572731.8,330.515,260.9748,58.82119,52.53498
572754.1,329.6251,261.4916,58.75272,52.58969
572766.3,328.5358,261.9241,58.66854,52.63538
572783.1,327.2294,262.4808,58.56706,52.69403
