Time Stamp(ms),Intersection,,Angle,
,x,y,x,y
433770.2,316.443,257.9739,57.70607,52.21458
433788,316.3547,257.6311,57.69886,52.17767
433803.1,316.268,257.56,57.69176,52.17002
433819.5,316.0209,257.1033,57.67153,52.12075
433836.2,315.6313,256.4923,57.63958,52.05466
433853.5,315.1598,256.1147,57.60084,52.01371
433871.7,314.79,255.9597,57.5704,51.99689
433886.4,314.4758,256.0326,57.5445,52.00481
433903.3,314.2054,256.3526,57.52218,52.03952
433921.3,314.0452,256.6299,57.50893,52.06956
433936.4,314.0508,257.2867,57.5094,52.14055
433952.8,314.103,257.8461,57.51371,52.20083
433970.6,314.2334,258.3793,57.52449,52.25813
433989,314.43,258.8605,57.54071,52.30972
434005.8,314.5471,258.896,57.55038,52.31352
434021.2,314.5627,258.4486,57.55167,52.26556
434038,314.1599,258.3701,57.51841,52.25714
434055.4,313.8078,258.0114,57.4893,52.21861
434067.8,313.2719,257.4377,57.4449,52.15683
434086.9,312.8471,257.0736,57.40963,52.11754
434104.4,312.4303,256.569,57.37496,52.06297
434119.4,311.9886,256.6028,57.33813,52.06663
434140.7,311.7096,256.8287,57.31484,52.09107
434154,311.7159,257.4355,57.31537,52.1566
434170.9,311.9146,258.4034,57.33196,52.26072
434188.2,312.3016,259.5162,57.36423,52.37983
434204.1,312.643,260.715,57.39266,52.50742
434222.7,312.9659,261.9091,57.4195,52.63379
434239.8,313.0917,262.5602,57.42995,52.70238
434254.3,313.02,262.9369,57.42399,52.74197
434270.6,312.7264,263.2787,57.39959,52.77784
434287.8,312.4232,263.43,57.37436,52.79369
434305.9,312.0592,263.5281,57.34403,52.80397
434321.7,311.6726,263.4858,57.31175,52.79953
434338.8,311.4971,263.6126,57.29708,52.81281
434353.4,311.2918,263.7914,57.27991,52.83151
434369.6,311.0437,263.9084,57.25913,52.84374
434387.4,310.882,264.2248,57.24557,52.87679
434404.1,310.7867,264.6581,57.23758,52.92195
434420.1,310.6956,265.1243,57.22993,52.97044
434437.5,310.5482,265.4702,57.21756,53.00636
434452.6,310.4991,265.8821,57.21344,53.04904
434470.3,310.5154,266.2455,57.21481,53.08662
434486.5,310.5078,266.9125,57.21416,53.15544
434504,310.4882,267.855,57.21251,53.25231
434526.8,310.4444,268.5512,57.20884,53.32359
434540.7,310.2818,269.5449,57.19517,53.4249
434560.3,310.1428,270.3209,57.18348,53.50369
434573.2,310.0812,270.9213,57.17829,53.56445
434588,309.9357,271.5331,57.16605,53.62618
434606.2,309.8042,272.2859,57.15496,53.7019
434621.5,309.5649,272.9371,57.13479,53.76718
434639.4,309.4545,273.6404,57.12547,53.83744
434654.9,309.4393,274.5584,57.12419,53.92881
434670.4,309.5195,275.7343,57.13096,54.04528
434688.8,309.5289,277.4434,57.13175,54.21338
434705.7,309.6533,279.4088,57.14225,54.40502
434723.2,309.9447,281.0081,57.16681,54.55966
434739.5,310.2776,282.8012,57.19482,54.73164
434756.4,310.8388,284.8584,57.24195,54.92719
434774.9,311.1911,286.6565,57.27147,55.09655
434787.8,311.4316,289.0003,57.2916,55.31519
434802.6,311.7292,291.8208,57.31648,55.57513
434822.4,311.7351,294.4758,57.31697,55.81671
434838.7,311.4127,297.3177,57.29002,56.07203
434852.4,310.8188,300.6938,57.24026,56.37099
434870.6,310.3943,304.172,57.20462,56.67417
434889.4,309.7753,307.3283,57.15253,56.94513
434907.6,309.0531,309.7811,57.09156,57.15302
434921.6,308.0239,312.3804,57.00432,57.3708
434936.3,306.774,315.2239,56.89783,57.60611
434954.1,304.8874,317.712,56.73593,57.80955
434970.8,302.7513,319.9562,56.55093,57.99109
434988.7,299.8909,321.744,56.30031,58.13441
435005.1,297.1723,323.5746,56.05904,58.27998
435023.4,294.2979,325.0906,55.80062,58.39962
435041.3,291.5662,326.5357,55.5518,58.51293
435060.9,288.5809,327.7625,55.27624,58.60854
435075.3,286.0102,328.7413,55.03584,58.68446
435088.8,283.1558,329.971,54.76548,58.77937
435107.4,280.6497,331.1716,54.52511,58.87153
435122.9,278.3993,332.2967,54.30681,58.95745
435139.3,276.2861,333.3216,54.0997,59.03535
435155.4,274.1144,334.4473,53.88467,59.12051
435172.3,272.1588,335.2321,53.68913,59.17963
435190,270.4763,335.9508,53.51944,59.2336
435205,268.4702,336.7836,53.3153,59.29591
435223.3,266.6032,337.6611,53.12356,59.36132
435238.7,264.5023,338.6087,52.90572,59.43168
435255.4,262.2438,339.4358,52.66908,59.49285
435273.2,260.1325,340.0983,52.44552,59.54169
435288.1,257.4804,341.1425,52.16143,59.61839
435306.4,254.9952,342.3499,51.8919,59.70663
435329.9,253.0866,343.1539,51.68268,59.76513
435341.9,251.1361,343.805,51.46685,59.81236
435362.3,249.1075,344.1302,51.2402,59.8359
435372.3,246.9163,344.2623,50.99284,59.84546
435388.8,244.3885,343.7065,50.70416,59.80523
435407.1,242.3057,342.9189,50.46361,59.74805
435424,239.9847,342.1177,50.19263,59.6897
435443.2,237.7499,341.6631,49.92878,59.65649
435459.3,234.8968,341.7034,49.58767,59.65944
435474.6,231.9139,341.9624,49.22588,59.67836
435491.1,229.9136,342.1455,48.98026,59.69172
435506.8,227.0044,343.0093,48.61865,59.75463
435524.4,223.8172,344.3092,48.21646,59.84884
435542.1,221.007,345.6917,47.85652,59.94846
435558.1,218.2139,347.6087,47.49375,60.08561
435574.1,215.1681,349.46,47.09236,60.217
435591.8,211.4903,350.9649,46.59949,60.32302
435608.9,208.8111,351.7452,46.23471,60.37773
435625.5,207.7348,351.3291,46.08677,60.34858
435642.5,205.327,351.3048,45.75296,60.34687
435662,203.5746,351.3271,45.50748,60.34843
435677.1,202.597,351.0189,45.36958,60.32681
435691.7,201.8181,349.6451,45.25924,60.23007
435719.4,201.2077,348.6228,45.17247,60.15771
435735.6,200.4846,347.8907,45.06933,60.1057
435745.2,200.2183,347.0376,45.03125,60.04487
435760.3,199.9241,345.7692,44.98913,59.95403
435775.7,199.559,344.431,44.93676,59.85764
435791.5,198.8895,343.5865,44.84049,59.79653
435809.4,198.539,342.8816,44.78996,59.74534
435826,198.1339,342.1798,44.73146,59.69423
435844.1,197.474,341.4633,44.63588,59.64188
435860,196.7134,340.7881,44.52534,59.59239
435874.7,195.9041,339.6035,44.40726,59.50523
435893.5,195.5612,337.4511,44.35707,59.3457
435910.1,195.4284,335.0261,44.33763,59.16413
435927.7,195.3634,332.6811,44.32809,58.98671
435944.8,195.855,329.6021,44.40007,58.75095
435958.8,196.5332,325.9777,44.49908,58.46926
435973.9,197.0452,321.6128,44.57362,58.12393
435992.7,197.3725,316.3015,44.62115,57.6945
436012.9,197.4334,312.5503,44.62999,57.38494
436027.3,197.4326,308.3136,44.62988,57.02892
436044.7,197.3728,303.343,44.62119,56.60235
436059.7,197.3984,299.4687,44.62492,56.26304
436073.7,197.8142,295.3616,44.68519,55.89666
436091.3,198.1903,291.3268,44.7396,55.52985
436109.2,198.0933,287.4664,44.72559,55.17237
436125.2,197.79,283.8572,44.68168,54.83225
436143.1,197.7902,281.0747,44.68171,54.56607
436159.8,197.8772,278.5685,44.69431,54.3233
436176.1,197.7041,275.9018,44.66924,54.06181
436195.2,197.419,274.1494,44.6279,53.88816
436209.2,196.4817,272.1861,44.49159,53.69188
436225.4,195.1199,269.9258,44.29238,53.46361
436244.5,193.6722,267.2974,44.07912,53.19505
436261.9,192.9356,265.4115,43.97002,53.00026
436277.5,192.4171,263.2926,43.89297,52.77929
436294.7,191.731,260.9639,43.79074,52.53382
436310.2,191.1376,258.7802,43.70201,52.30112
436327.7,191.1461,256.8608,43.70328,52.09454
436343.6,191.3042,254.8021,43.72694,51.87082
436360.4,191.6347,252.7902,43.77634,51.65002
436377.6,192.0845,251.3962,43.84345,51.49575
436392.4,192.7469,249.8696,43.94201,51.32561
436410.8,193.1443,248.4862,44.00098,51.17033
436426.3,193.8949,246.8916,44.11202,50.99004
436442.9,194.7204,245.9091,44.23369,50.87824
436465.8,195.6527,244.8399,44.37048,50.75598
436476.8,196.9589,243.2314,44.56106,50.57082
436493.8,198.2404,241.6842,44.74685,50.39136
436509.4,199.6772,240.2092,44.95373,50.21898
436525.8,201.2271,238.5961,45.17523,50.02903
436544.1,202.7512,237.6644,45.39138,49.91863
436559,205.1341,236.4034,45.72604,49.76839
436575.8,207.5752,234.9632,46.06478,49.59566
436592.3,209.9152,233.384,46.38562,49.40485
436609.3,212.4171,231.7782,46.72455,49.2093
436626.6,215.6202,230.1047,47.15232,49.00382
436648.9,218.4346,228.8484,47.52259,48.84845
436660.9,221.795,227.4211,47.95796,48.67077
436677.5,224.7268,226.4208,48.33189,48.54548
436691.3,227.6327,225.3937,48.69719,48.41619
436708.4,230.3402,224.6295,49.03284,48.31956
436724.6,233.1544,223.9923,49.37698,48.23872
436744.5,235.3396,223.4889,49.64092,48.17467
436764.1,237.3027,223.1064,49.87563,48.12589
436779,238.7817,222.9696,50.05096,48.10842
436793.8,239.3376,223.3657,50.11654,48.15897
436810.1,239.3073,223.3202,50.11296,48.15317
436828,239.3148,223.4366,50.11384,48.16801
436844.3,239.4078,223.7228,50.12479,48.20445
436860.3,239.0214,224.3624,50.07925,48.28571
436878.7,238.5844,224.5571,50.02765,48.3104
436896.3,238.192,224.5145,49.98121,48.305
436911.8,237.6828,224.6708,49.92081,48.3248
436927.7,237.2426,224.8222,49.86848,48.34397
436944.1,236.9092,225.1524,49.82877,48.38573
436962,237.0411,225.3415,49.84448,48.4096
436979.6,237.0697,225.2806,49.8479,48.40191
436997.1,237.1272,225.6077,49.85474,48.44318
437014.9,237.3272,226.0003,49.87854,48.49263
437031.3,237.6243,226.2616,49.91386,48.52548
437043.7,237.9392,226.6217,49.95124,48.5707
437069.8,238.1952,226.8888,49.98158,48.60418
437089.1,238.6445,226.8407,50.03474,48.59814
437104.3,239.0133,226.7963,50.0783,48.59258
437112.1,239.555,226.6936,50.14212,48.57972
437138.9,240.6396,226.5251,50.2694,48.55857
437156.6,241.9537,226.5932,50.42271,48.56712
437169.9,243.053,226.7629,50.55021,48.58839
437181,244.331,227.0419,50.69756,48.62335
437192.8,246.2691,227.349,50.91927,48.66175
437209.2,249.0041,227.4696,51.22859,48.67683
437226.1,253.0825,226.9009,51.68223,48.60569
437243.1,256.9391,226.3432,52.103,48.53573
437260,260.6752,225.8406,52.5032,48.47253
437276.8,263.4105,225.7319,52.79165,48.45884
437292.2,267.0963,226.3534,53.17437,48.53702
437310.2,270.8459,226.9697,53.55682,48.6143
437327.1,274.666,227.3628,53.9395,48.66348
437346.4,278.4937,227.2025,54.31601,48.64344
437363.9,282.6172,226.7135,54.71407,48.58221
437381.9,287.411,225.8611,55.16719,48.47511
437398.1,290.9073,225.6084,55.49131,48.44328
437412.9,294.856,225.2015,55.85107,48.39192
437430.3,298.722,225.0075,56.19695,48.36741
437447.2,303.0797,225.1572,56.57948,48.38633
437468.2,306.0241,225.366,56.83364,48.41269
437481.7,309.1325,225.6549,57.09828,48.44913
437496.8,312.5195,225.9607,57.38238,48.48764
437516.6,315.5909,226.8242,57.63627,48.59609
437531.1,318.351,227.7829,57.86142,48.71593
437549.7,320.8799,228.6395,58.06528,48.82253
437565.9,323.0808,229.4184,58.24083,48.91907
437584.8,324.3558,230.0894,58.34173,49.00193
437598,325.3493,230.9304,58.41996,49.10541
437614.2,326.4737,231.862,58.50808,49.21954
437631.8,327.4881,232.8787,58.5872,49.34348
437648.8,327.8459,233.9667,58.61503,49.47543
437664.4,328.1792,234.9589,58.6409,49.59515
437680.4,328.4678,235.8887,58.66328,49.70681
437697.6,328.825,236.898,58.69093,49.82743
437712.3,329.1369,237.9972,58.71505,49.95812
437731.9,329.2163,239.1243,58.72118,50.09139
437747.6,329.3425,240.2978,58.73093,50.22937
437764.6,329.4432,241.3605,58.7387,50.35363
437779.8,329.5901,242.3472,58.75002,50.46843
437796,329.6432,243.3919,58.75412,50.58937
437813.8,329.7432,244.1393,58.76182,50.67551
437831.4,329.6783,245.008,58.75682,50.77524
437848.8,329.4631,245.814,58.74023,50.8674
437865.6,329.2452,246.502,58.72341,50.94577
437880.3,329.2096,247.0396,58.72066,51.00682
437898.1,329.3185,247.4189,58.72907,51.04981
437912.6,329.5126,247.8562,58.74405,51.09927
437930.2,329.7058,248.2857,58.75894,51.14773
437948.6,329.8965,248.7905,58.77363,51.20457
437964.2,330.1782,249.2459,58.79531,51.25573
437980.5,330.449,249.8655,58.81612,51.32515
437997.8,330.7257,250.4557,58.83736,51.39108
438013.9,330.8918,251.1817,58.85009,51.47192
438032.9,330.8655,251.7678,58.84808,51.53698
438048.4,330.6256,252.2348,58.82967,51.58868
438063.6,330.3351,252.5544,58.80737,51.62399
438082,329.8605,253.0972,58.77085,51.68384
438099.5,328.8365,253.9947,58.69182,51.78247
438115.1,327.9742,255.2098,58.62499,51.9153
438132.1,327.5692,256.5287,58.59351,52.05861
438148.5,327.186,258.0921,58.56368,52.22728
438165.7,325.9753,260.1972,58.46907,52.4524
438182.5,324.4078,262.1372,58.34583,52.65784
438200.3,324.0949,264.1282,58.32113,52.8667
438217.4,323.8233,266.0371,58.29966,53.06508
438230.8,323.9318,268.0435,58.30824,53.27164
438248.3,324.2022,269.1502,58.32961,53.38472
438264.4,323.6534,270.6776,58.28622,53.5398
438281.9,322.3102,272.4263,58.17956,53.71599
438300.8,321.1803,274.1283,58.08934,53.88605
438315.7,320.363,275.924,58.0238,54.064
438331.7,319.3499,277.1499,57.94222,54.18461
438349,317.9904,278.1682,57.83217,54.28426
438365.3,316.6795,279.3168,57.7254,54.39609
438382.7,315.3064,280.6108,57.61289,54.52135
438400.3,313.0915,281.5387,57.42993,54.61071
438416.9,310.953,282.2247,57.25152,54.67651
438432.1,309.0078,283.0598,57.08773,54.75634
438448.1,306.978,283.7243,56.91525,54.81962
438465.1,304.7487,284.4297,56.72397,54.8866
438483.2,302.8004,283.8747,56.5552,54.83392
438498.1,301.8026,283.1426,56.46817,54.76423
438514,301.2959,282.8277,56.42382,54.73418
438532.1,300.7197,283.4047,56.37327,54.78921
438551.4,299.437,283.881,56.26024,54.83452
438567.3,297.653,284.1096,56.10192,54.85623
438583,295.9182,284.6677,55.94671,54.90914
438601.3,294.9529,285.2922,55.85981,54.96817
438626.5,294.4945,286.0981,55.81841,55.04411
438636.4,294.1291,286.631,55.78534,55.09415
438648,293.5894,287.4161,55.73639,55.16767
438665.2,293.046,288.2093,55.68698,55.24167
438682.8,292.6704,289.1731,55.65276,55.33121
438698.9,292.6317,290.0506,55.64923,55.41238
438715.6,292.5818,290.7245,55.64468,55.47449
438732.1,292.5442,291.2348,55.64124,55.5214
438750.4,292.6513,291.2614,55.65102,55.52385
438768.6,292.7267,291.5731,55.65789,55.55244
438785,292.835,292.0306,55.66776,55.59433
438801.5,292.8164,292.4212,55.66607,55.63002
438818.5,292.7162,292.4721,55.65694,55.63467
438835.2,292.4796,292.4673,55.63535,55.63422
438851.5,291.9302,292.6671,55.58514,55.65246
438868.2,290.9314,293.2487,55.49353,55.70543
438887.4,289.9991,293.8093,55.40762,55.75635
438906.2,289.0879,294.1498,55.32331,55.78721
438917.7,288.1982,294.1408,55.24064,55.78639
438933.2,287.0542,293.8799,55.13382,55.76275
438951.1,286.0511,293.7851,55.03969,55.75415
438967.5,284.9396,293.3876,54.93487,55.71806
438983.8,283.5814,292.6311,54.80603,55.64918
439004.4,282.5699,292.2334,54.70955,55.61287
439017.4,281.3286,291.6679,54.5905,55.56112
439033.2,279.8369,291.1044,54.44653,55.50942
439051.6,278.0049,290.4239,54.26831,55.44682
439069.1,275.3786,289.6035,54.01011,55.37106
439085.2,272.415,288.6059,53.71485,55.27856
439101.8,268.8795,287.6004,53.35712,55.18489
439117.8,264.3447,286.6123,52.88929,55.0924
439134.5,259.3013,285.5363,52.35688,54.99121
439155.9,254.9796,284.8875,51.8902,54.92994
439172.3,250.2759,284.4066,51.37102,54.8844
439186.8,246.2702,284.2552,50.9194,54.87004
439201.6,237.6505,284.5161,49.91697,54.89478
439248.6,232.2755,285.2306,49.27002,54.96236
439265.7,229.0754,285.6627,48.8766,55.00312
439282,226.3,286.2274,48.53031,55.05627
439295.3,224.05,286.7922,48.24605,55.10927
439305.3,221.7749,287.2314,47.95538,55.1504
439318.4,219.368,287.6046,47.64426,55.18528
439328.7,216.5531,287.7964,47.27564,55.20318
439340.3,213.9116,287.7821,46.92498,55.20185
439355.2,212.0035,287.4618,46.66881,55.17194
439368.4,209.7405,287.1494,46.3618,55.14273
439384.6,207.9533,286.652,46.11688,55.09613
439402.2,206.7894,286.0517,45.95619,55.03975
439418.1,205.8038,285.8257,45.81939,55.01848
439434.8,205.0315,285.5839,45.71173,54.99569
439451.6,204.8022,285.087,45.67968,54.9488
439468.1,204.1577,284.5227,45.58941,54.8954
439486.2,203.5535,283.729,45.50451,54.82007
439500.7,202.6597,283.0433,45.37844,54.75476
439518,201.8929,282.6927,45.26986,54.72128
439533.9,201.1575,282.2438,45.16533,54.67834
439552,200.6848,281.8106,45.09792,54.63681
439568.8,200.5877,281.044,45.08406,54.56311
439586.1,200.6151,280.2297,45.08797,54.48455
439602.5,200.6865,279.362,45.09816,54.40048
439623.9,201.0041,278.2061,45.14347,54.28796
439636.4,201.1685,277.3842,45.16689,54.20758
439650.4,201.3743,276.6165,45.19618,54.13222
439666.3,201.2871,275.6201,45.18378,54.03399
439685.9,201.1318,274.3111,45.16166,53.90424
439705.6,201.1734,272.5372,45.16759,53.72712
439720.7,201.4262,270.5117,45.20356,53.52301
439734.7,201.7531,268.454,45.25001,53.31365
439750.8,202.1314,265.9587,45.30368,53.05696
439769.2,202.7156,263.5188,45.38634,52.80299
439786.1,203.5895,261.6286,45.50957,52.60417
439802.8,204.8994,259.9595,45.69326,52.4271
439817.1,206.0301,258.2813,45.85086,52.2476
439833.3,207.8138,256.6836,46.09767,52.07537
439850.3,208.6537,255.4897,46.21312,51.94579
439868,209.1414,254.4832,46.27995,51.83596
439885,209.279,253.4732,46.29877,51.72522
439901.8,209.9028,251.8783,46.38394,51.54922
439919.5,210.6156,250.4703,46.48093,51.39272
439935,211.228,248.9296,46.56399,51.22021
439955.4,211.7041,247.4935,46.6284,51.05825
439971.2,212.202,245.9079,46.69557,50.87811
439987.7,212.6432,244.6332,46.75497,50.73227
440005.7,212.9357,243.8405,46.79427,50.64111
440021.5,213.1088,243.2354,46.8175,50.57129
440037.6,213.2368,242.778,46.83467,50.51838
440051.8,213.4249,242.4127,46.85988,50.47603
440070.8,213.5091,241.8907,46.87116,50.41539
440089.9,213.4805,241.1709,46.86732,50.33151
440106.8,213.4681,240.4691,46.86567,50.24944
440122.6,213.4963,240.0544,46.86943,50.20081
440138.1,213.5646,239.6515,46.87859,50.15348
440153.6,213.6893,239.693,46.89527,50.15836
440173.9,213.7081,239.795,46.89779,50.17035
440188.4,213.8229,239.9926,46.91313,50.19357
440205.4,214.0477,240.0045,46.94316,50.19496
440221.1,214.192,239.9375,46.96243,50.18709
440238.4,214.3588,239.8495,46.98468,50.17675
440252.7,214.5028,239.4629,47.00387,50.13128
440269.9,214.6648,239.4686,47.02544,50.13196
440285.8,214.9047,239.3105,47.05737,50.11334
440302.9,215.1103,238.8952,47.08468,50.06436
440319.6,215.1093,238.6083,47.08455,50.03047
440334.9,215.0415,238.2944,47.07555,49.99334
440352.9,214.951,238.0102,47.06352,49.95966
440368.6,214.7971,237.6845,47.04305,49.92101
440387.1,214.6104,237.4137,47.01821,49.88883
440402.6,214.3263,237.3477,46.98035,49.88098
440421.8,213.9006,237.2574,46.92352,49.87024
440438.8,213.6609,237.2815,46.89147,49.87311
440454.3,213.5271,237.483,46.87357,49.89708
440472.1,213.3545,237.7966,46.85044,49.93431
440489.3,213.2893,238.1036,46.84171,49.97074
440506,213.221,238.4569,46.83255,50.01257
440523.8,213.0975,238.7334,46.81599,50.04526
440541.5,213.0705,238.9637,46.81237,50.07244
440557.2,213.0896,239.1372,46.81492,50.09291
440571.2,213.0874,239.2962,46.81463,50.11165
440590.6,212.997,239.2587,46.8025,50.10724
440605.8,212.8309,239.4008,46.7802,50.12397
440641,212.5819,239.2982,46.74672,50.11189
440655.5,212.5004,239.3609,46.73576,50.11928
440667.4,212.4484,239.4901,46.72876,50.13448
440678.3,212.4038,239.6445,46.72275,50.15266
440688,212.1965,239.764,46.69483,50.16671
440705.4,212.4892,238.6671,46.73425,50.03742
440722.5,212.6597,238.4877,46.75719,50.01621
440740.1,212.8508,238.485,46.78287,50.01589
440756.4,212.8867,238.3518,46.7877,50.00013
440772,212.7441,238.4073,46.76854,50.0067
440792.4,212.436,238.505,46.72709,50.01825
440806.3,211.8346,238.4223,46.64601,50.00848
440821.7,211.2284,238.5221,46.56404,50.02028
440840.5,210.3496,238.4903,46.44477,50.01652
440856.2,208.8598,238.7137,46.24138,50.04292
440872.7,206.6344,239.2373,45.93472,50.10471
440891.9,204.3891,239.9229,45.62184,50.18538
440907.4,201.7886,240.8007,45.25506,50.28826
440926.6,199.5432,241.5717,44.9345,50.37825
440939.8,196.9399,242.1001,44.5583,50.43973
440958.1,194.5605,242.47,44.21016,50.48267
440974,192.2124,242.6418,43.86251,50.5026
440988.4,190.1984,242.9571,43.56106,50.53911
441006.4,188.6927,243.1382,43.3337,50.56006
441023,187.7914,242.8432,43.19679,50.52593
441040.8,187.1755,242.4957,43.10287,50.48566
441057.9,186.7345,242.2712,43.03545,50.45961
441073,186.7143,241.7856,43.03236,50.40316
441089.6,186.7595,241.3897,43.03928,50.35704
441106.5,186.5575,241.1259,43.00834,50.32626
441123.1,186.4792,240.7216,42.99635,50.279
441139.1,186.6897,240.3153,43.02858,50.23142
441155.4,187.1552,239.8498,43.09977,50.17678
441173.8,187.5526,239.4853,43.1604,50.13392
441190.7,188.2236,238.909,43.26251,50.06599
441207,189.057,238.4111,43.38887,50.00715
441224.1,190.0748,238.0683,43.54246,49.96655
441241.2,191.2362,237.7738,43.71677,49.93161
441257.9,191.9972,237.6316,43.83044,49.91473
