Time Stamp(ms),Intersection,,Angle,
,x,y,x,y
199134.3,281.4182,253.3268,54.59912,51.70911
199153.4,281.0746,253.5433,54.56606,51.73292
199167.8,280.7481,254.4098,54.5346,51.82794
199184.6,280.7844,255.8313,54.53809,51.98294
199202.8,281.6969,258.0184,54.6259,52.21936
199219.5,283.0354,259.5738,54.754,52.38597
199236,285.1688,260.0358,54.95652,52.43521
199253.1,286.5965,260.0603,55.09092,52.43782
199269.3,287.5665,260.0722,55.18172,52.43909
199287.2,288.3403,260.4642,55.25386,52.48079
199304.9,289.1934,261.0858,55.33309,52.54673
199320.8,290.0429,261.5448,55.41167,52.59531
199336.9,290.669,261.4925,55.46939,52.58978
199354.7,291.1372,261.3591,55.51244,52.57568
199371.4,291.4879,261.4336,55.54462,52.58356
199386.9,291.4176,261.5413,55.53817,52.59494
199402.8,291.3412,261.7896,55.53117,52.62117
199418.2,291.3219,262.486,55.5294,52.69458
199434.5,291.5703,263.4754,55.55218,52.79844
199452.8,292.0293,263.951,55.59421,52.84819
199468.5,292.5135,264.2501,55.63845,52.87942
199485.8,292.8377,264.459,55.66801,52.90121
199502.1,292.8761,264.6557,55.67151,52.9217
199520.2,292.8078,265.0631,55.66529,52.96408
199537,292.7325,265.4685,55.65842,53.00617
199552.4,292.6053,265.7807,55.64682,53.03853
199571.5,292.404,266.0425,55.62845,53.06563
199587,292.0363,266.1637,55.59485,53.07817
199604.7,291.5877,266.1076,55.55378,53.07236
199621.3,291.1723,266.0025,55.51566,53.0615
199637.5,290.7896,265.9982,55.48049,53.06105
199653.7,290.347,266.2396,55.43972,53.08601
199670.5,289.965,266.4781,55.40448,53.11065
199695.8,289.782,266.5784,55.38757,53.12099
199713.9,289.4876,266.6951,55.36034,53.13304
199722.7,289.3012,266.8103,55.34308,53.14491
199735.9,289.1131,267.0604,55.32565,53.17067
199752.5,288.9225,267.2898,55.30796,53.19427
199770.9,288.8705,267.5084,55.30313,53.21674
199787.7,288.8667,267.7476,55.30279,53.24129
199803.1,288.9643,268.0789,55.31184,53.27526
199819.8,288.9591,268.3595,55.31136,53.30398
199835.3,288.8286,268.556,55.29925,53.32408
199852,288.6628,268.7206,55.28385,53.34089
199868.8,288.4205,268.8639,55.26132,53.35551
199887,288.2354,268.9748,55.24409,53.36683
199902.7,288.058,269.0712,55.22757,53.37666
199920,287.8845,269.1435,55.2114,53.38403
199935.5,287.7628,269.1711,55.20005,53.38685
199954.8,287.7251,269.3122,55.19653,53.40121
199973.2,287.7163,269.3993,55.19571,53.41009
199988.7,287.6539,269.6835,55.18988,53.43899
200006.4,287.5683,270.0485,55.18189,53.47607
200024.5,287.4286,270.5524,55.16884,53.52714
200042.6,287.2999,270.8371,55.15681,53.55594
200055.2,287.0853,271.2546,55.13673,53.59811
200072.3,286.8782,271.8941,55.11734,53.66253
200088.8,286.486,272.8695,55.08055,53.76041
200105.4,286.092,274.0442,55.04353,53.87769
200122.8,285.8061,275.2587,55.01663,53.99825
200141.4,285.5325,276.6227,54.99085,54.13283
200158.8,285.322,277.827,54.97099,54.25093
200172.2,285.1215,278.9906,54.95205,54.36439
200190.1,285.0314,279.8924,54.94354,54.4519
200206.9,285.025,280.4263,54.94294,54.50354
200224.5,284.9971,280.752,54.9403,54.53497
200240.5,284.8274,280.9666,54.92425,54.55566
200255.6,284.6167,280.7911,54.90431,54.53875
200270.7,284.4533,280.6055,54.88883,54.52084
200290.9,284.4273,280.3271,54.88636,54.49396
200307.8,284.3139,279.981,54.87561,54.46048
200323.8,284.0839,279.6086,54.85379,54.42441
200339.3,283.9422,279.113,54.84034,54.3763
200356.3,283.7572,278.6715,54.82275,54.33334
200373.7,283.6163,278.1909,54.80935,54.28648
200390,283.4675,277.6693,54.79519,54.2355
200407.6,283.2756,277.2301,54.77691,54.19247
200423.7,282.9644,276.6159,54.74723,54.13216
200441.6,282.6951,276.2368,54.72151,54.09484
200457.5,282.4296,275.7445,54.69612,54.04628
200473.9,282.0801,275.3148,54.66265,54.0038
200492.2,281.701,274.9305,54.62629,53.96574
200508,281.1527,274.5197,54.57358,53.92498
200523.8,280.5364,274.0842,54.51417,53.88166
200541.3,279.8066,273.6645,54.44359,53.83985
200558.1,279.1557,273.2496,54.38044,53.79843
200573.8,278.0763,272.9474,54.27529,53.76821
200588.6,276.8214,272.802,54.15236,53.75365
200605.2,275.4867,272.7287,54.0208,53.7463
200623.6,274.2737,272.8304,53.90052,53.75648
200638.7,272.8217,273.1905,53.75563,53.79252
200656.5,271.542,273.7182,53.62708,53.84521
200674.2,270.4069,274.4246,53.5124,53.91552
200690.4,269.2201,275.649,53.39184,54.03685
200708.4,268.2747,277.0464,53.29531,54.17445
200724.8,267.69,279.2299,53.23538,54.38765
200740.8,267.1683,281.5378,53.18177,54.61062
200759.7,266.7435,284.692,53.13802,54.91144
200777.3,266.7136,287.2162,53.13494,55.14898
200792,266.7892,290.0135,53.14274,55.40895
200805.4,266.8937,293.6405,53.15351,55.74103
200823,266.7216,296.5514,53.13577,56.00351
200839.6,266.5846,298.8434,53.12164,56.2077
200856.8,266.456,300.6137,53.10837,56.36395
200872.2,266.2425,302.1647,53.08632,56.4998
200889.4,265.8832,303.6868,53.04915,56.63217
200906.1,265.2512,304.6809,52.98363,56.71812
200923.7,264.7753,305.2892,52.93415,56.77053
200940.4,264.5525,305.3001,52.91095,56.77147
200956.2,264.4151,304.8108,52.89664,56.72932
200974.2,264.1987,304.6473,52.87406,56.71523
200990.4,263.7544,304.3028,52.82764,56.68548
201009,263.4331,303.8367,52.79401,56.64515
201023.9,263.215,303.739,52.77116,56.63669
201041.7,262.9964,303.5805,52.74822,56.62295
201056.6,262.8195,303.1041,52.72964,56.5816
201072.9,262.7477,301.858,52.7221,56.47301
201091.7,262.8035,301.1965,52.72797,56.41511
201111.6,262.8336,300.8766,52.73113,56.38704
201124.8,262.9074,300.1931,52.73888,56.32695
201142.3,263.0214,299.4932,52.75084,56.26521
201158.9,263.0966,298.9117,52.75873,56.21376
201175.5,263.178,298.5202,52.76728,56.17905
201191.7,262.9749,298.0114,52.74596,56.13383
201208.6,262.7864,297.3133,52.72617,56.07163
201226,262.6199,296.5448,52.70866,56.00292
201243.3,262.3069,296.0655,52.67572,55.95995
201260.4,261.942,295.6798,52.63726,55.92529
201277.6,261.4434,295.3252,52.58459,55.89337
201293.2,260.7184,295.093,52.50779,55.87244
201310.9,260.1743,295.0948,52.44996,55.87261
201325.3,259.6183,295.0242,52.39072,55.86624
201343,258.8811,294.9354,52.31193,55.85823
201360.6,258.04,294.8615,52.22168,55.85156
201376.4,257.1542,295.0321,52.12624,55.86695
201391.6,256.2642,295.3401,52.02993,55.89471
201409.8,255.5707,295.5056,51.95461,55.90962
201426.2,255.0397,295.7449,51.89676,55.93114
201444,254.6979,295.8116,51.85944,55.93714
201460.6,254.1688,295.9674,51.80155,55.95113
201477.3,253.7847,296.1078,51.75943,55.96375
201493,253.3891,296.2423,51.71597,55.97581
201510.9,253.0404,296.2193,51.67759,55.97374
201527.1,252.6732,296.2979,51.6371,55.98079
201542.6,252.3329,296.3088,51.59952,55.98177
201559.3,252.1886,296.3788,51.58357,55.98805
201575.8,251.8968,296.3961,51.55127,55.98959
201592.7,251.1489,296.3057,51.46827,55.98149
201611.3,249.8907,296.2563,51.32797,55.97706
201629.6,248.5731,296.4846,51.18011,55.99753
201644.4,246.7122,296.8084,50.96966,56.02652
201663.2,245.0505,297.2265,50.78011,56.06388
201681.3,243.2075,298.2388,50.56807,56.15405
201696.7,240.9458,299.9133,50.30521,56.30229
201720.2,239.0414,301.7298,50.08161,56.46181
201732.9,237.4892,303.7629,49.89781,56.63877
201743.8,235.5034,306.627,49.6606,56.88527
201762.4,233.3983,310.1714,49.40659,57.18589
201788.4,231.2684,315.0452,49.14688,57.59141
201804,229.4164,317.9205,48.91882,57.82649
201813.7,227.6715,320.1628,48.70203,58.00771
201827.3,224.3894,323.8088,48.28913,58.29852
201845.6,221.6085,326.772,47.93398,58.53139
201862.4,219.4142,329.5806,47.65026,58.74929
201879.8,216.4648,331.1185,47.26398,58.86747
201895.1,213.1357,331.9316,46.82111,58.92962
201912.9,210.9704,332.7702,46.52908,58.99349
201930.4,209.1943,333.2905,46.28718,59.033
201946,206.7509,333.9128,45.95086,59.08013
201964.3,204.4229,334.9103,45.62658,59.15542
201980.6,202.3972,336.1359,45.34133,59.24746
201996.5,199.862,337.8566,44.98022,59.37586
202012.1,196.9031,340.0195,44.55294,59.53589
202030.9,194.3648,342.374,44.18134,59.70839
202050.2,192.5325,344.9939,43.91015,59.89825
202065.6,190.9846,348.8055,43.6791,60.17067
202081.1,189.3389,352.6104,43.43149,60.43817
202097.2,187.735,356.2711,43.18821,60.69144
202113.5,187.2007,359.2686,43.10672,60.8959
202131.7,186.1786,360.5934,42.95024,60.98544
202149,186.058,360.9348,42.93172,61.00843
202165,185.2876,362.4067,42.8132,61.10718
202181.5,183.8891,363.3172,42.59684,61.16796
202197.8,183.0265,364.0901,42.46265,61.21936
202212.6,182.8578,364.1922,42.43633,61.22614
202230.3,183.1555,363.761,42.48275,61.1975
202245,183.8021,362.4428,42.58334,61.1096
202262,184.57,361.6958,42.70237,61.05956
202279,185.4772,361.2686,42.84241,61.03088
202295.2,186.8311,360.9139,43.05023,61.00703
202312.5,188.3254,360.2856,43.27797,60.96468
202328.4,190.7854,358.947,43.64923,60.87409
202345.4,193.7512,357.7946,44.0908,60.79569
202364.3,197.2446,356.8498,44.60259,60.73112
202382.8,201.1224,356.5439,45.16032,60.71016
202398,205.0759,356.2862,45.71793,60.69248
202413.8,209.5679,356.2155,46.33824,60.68763
202430.9,214.9227,356.791,47.05975,60.72709
202446.9,220.4002,358.0381,47.77814,60.81229
202464.5,225.5995,359.2555,48.44215,60.89502
202481.7,230.7248,361.1318,49.08016,61.02168
202498.5,236.4898,363.6342,49.77872,61.18906
202514,243.7778,367.7342,50.63389,61.45951
202531.7,250.3029,371.6082,51.37403,61.71081
202547.4,257.7163,376.1501,52.18686,62.0003
202564.4,264.7679,379.3446,52.93338,62.20068
202582.6,271.0173,381.89,53.57415,62.35846
202602.8,277.5919,384.5477,54.22792,62.52144
202615.7,282.8648,386.8382,54.73772,62.66049
202630.2,287.5228,388.8096,55.17764,62.77914
202647.6,289.3704,389.6417,55.34949,62.82893
202663.5,291.0678,390.2762,55.50607,62.86679
202682.1,293.2531,391.2617,55.70583,62.92539
202702.3,294.1676,391.3877,55.78882,62.93287
202715,295.4325,391.0778,55.90304,62.91447
202731.4,297.2044,390.7487,56.06191,62.89492
202748.5,298.9493,390.2467,56.21709,62.86503
202765,300.3965,389.6139,56.34486,62.82727
202783.4,301.6889,389.3058,56.45823,62.80885
202799.9,303.3103,388.8509,56.59951,62.78161
202817,304.9867,388.2047,56.74449,62.74283
202835.3,306.9246,387.5614,56.9107,62.70413
202851.4,308.5376,386.6658,57.04792,62.65007
202864.5,309.4923,385.2539,57.12867,62.56445
202882.7,310.4711,384.5007,57.21108,62.51857
202898.9,312.1414,383.1597,57.35088,62.43654
202914.2,314.1305,381.5119,57.51599,62.33512
202934.6,315.8238,379.678,57.65537,62.22144
202952,317.1553,378.1803,57.76423,62.12795
202967.3,318.812,376.3354,57.89876,62.012
202984.5,321.425,373.4863,58.10892,61.83118
203002,324.6857,370.4665,58.36775,61.63717
203019.4,328.6262,367.284,58.67555,61.43004
203033.4,333.4293,362.834,59.04352,61.13573
203050.5,343.7102,358.0902,59.80549,60.81584
203066.1,357.2175,356.3245,60.75628,60.6951
203082.7,365.6041,355.2486,61.31958,60.6211
203099.5,371.9453,354.8558,61.73248,60.59399
203115.1,377.7543,355.7971,62.10126,60.65887
203136.6,380.1815,358.3627,62.25274,60.83438
203152.3,380.9764,361.1737,62.30201,61.0245
203169.3,382.8041,362.4489,62.41471,61.11
203186.4,385.3533,363.4933,62.5705,61.17969
203212,387.0697,364.0244,62.67447,61.215
203231,387.073,362.8233,62.67467,61.13502
203244.3,386.7527,361.8976,62.65533,61.07309
203252.7,386.2176,360.0972,62.62294,60.95196
203267.1,386.5452,357.9487,62.64278,60.80619
203285.5,387.4824,355.2795,62.69937,60.62323
203302.7,387.4173,353.1909,62.69544,60.4786
203319.8,387.1408,351.2614,62.67877,60.34383
203336.1,387.2339,349.5808,62.68438,60.22553
203352.7,386.5226,348.2871,62.64141,60.13388
203369.7,385.2299,347.6565,62.56299,60.08902
203387.4,384.5592,347.2092,62.52214,60.05713
203404.5,384.2964,346.5948,62.5061,60.01322
203421.1,383.971,345.9461,62.48622,59.96673
203436.3,383.559,345.2224,62.46101,59.91471
203454.2,382.7404,344.5271,62.4108,59.86458
203468.8,381.6123,344.0578,62.34132,59.83067
203485.3,380.3757,343.869,62.26479,59.817
203502.5,379.191,343.7662,62.1911,59.80955
203520.6,377.8958,343.8168,62.11013,59.81322
203536.4,376.162,343.7952,62.00106,59.81165
203551.2,374.1559,343.435,61.87387,59.78554
203571.7,371.8425,342.9817,61.72588,59.75262
203588.7,366.6074,342.6285,61.38565,59.72693
203614.8,362.7768,342.4056,61.13191,59.71069
203628.2,357.7166,342.4489,60.79037,59.71384
203640.6,352.9566,342.3388,60.46229,59.70582
203654.6,348.5475,341.9948,60.15237,59.68072
203670.2,341.5652,341.6178,59.64933,59.65318
203691.2,336.1343,341.5831,59.24734,59.65064
203703.9,330.8362,341.0319,58.84583,59.61028
203720,325.8282,340.4175,58.45755,59.56517
203737.3,320.7483,340.149,58.05473,59.54543
203753.3,312.623,339.504,57.391,59.49789
203781.1,305.1644,339.1597,56.75979,59.47246
203805.6,296.2549,338.8959,55.97694,59.45295
203820,292.878,338.7627,55.67168,59.44309
203832.4,289.2537,338.6864,55.33868,59.43744
203840,285.3813,338.5037,54.97658,59.4239
203854.3,280.1497,337.9005,54.47681,59.37913
203870.7,274.633,337.5766,53.93622,59.35503
203887.7,269.2147,338.2946,53.39129,59.40839
203904.7,264.2719,338.9157,52.8817,59.45441
203922.9,260.4621,339.3011,52.48056,59.48291
203938.3,257.5249,339.512,52.16623,59.49847
203953.1,254.5188,339.9692,51.83986,59.53219
203971.2,252.8095,340.642,51.65215,59.58167
203987,251.1215,341.0922,51.46523,59.6147
204007.9,250.6228,341.4167,51.40971,59.63847
204022,251.0407,341.8069,51.45624,59.667
204039.3,250.9258,342.1069,51.44347,59.68891
204055,250.7493,341.8825,51.42381,59.67252
204070.2,251.448,340.4005,51.5015,59.56393
204086.4,252.0921,339.0041,51.57289,59.46095
204103.1,252.9142,337.7034,51.66369,59.36447
204122.1,253.2875,336.8151,51.70479,59.29826
204136.2,253.5153,336.1194,51.72985,59.24623
204153.7,253.7139,334.9398,51.75166,59.15764
204171.3,253.8902,333.8271,51.77101,59.07365
204187.6,254.3125,333.1229,51.81728,59.02028
204206,254.8072,332.1857,51.87138,58.949
204221,255.4277,330.6144,51.93904,58.82882
204238,256.0885,328.5616,52.01088,58.67054
204254.1,256.1439,326.7952,52.01689,58.5332
204270.8,255.6329,325.2041,51.96137,58.40855
204288.1,255.0754,323.453,51.90065,58.27034
204303.5,254.571,321.5423,51.84557,58.1183
204320.6,253.6735,319.3259,51.74722,57.94029
204338,252.7493,317.6811,51.6455,57.80704
204355.4,251.4305,316.6573,51.49956,57.72359
204370,250.0793,315.7873,51.34906,57.65238
204388.2,248.7368,314.7729,51.19853,57.56899
204404.7,246.9233,314.0715,50.99363,57.51111
204423,245.4001,313.8332,50.82011,57.4914
204439,243.6702,313.9243,50.62148,57.49894
204455.7,241.2763,314.487,50.34381,57.54542
204475.1,238.6406,315.4022,50.03428,57.62077
204490.4,236.2355,315.9097,49.74832,57.66241
204507.6,234.0146,315.811,49.48123,57.65432
204524.1,232.3503,314.7321,49.27914,57.56563
204541.3,231.4323,313.5814,49.16697,57.47055
204557.1,231.1183,312.1882,49.12847,57.35479
204573.5,231.1481,310.0276,49.13213,57.17379
204589.4,230.635,307.6534,49.06911,56.97282
204606.6,230.357,305.361,49.03491,56.7767
204622.8,230.3588,302.3116,49.03513,56.51261
204640.1,230.6268,299.3817,49.06811,56.25535
204657.7,231.2112,296.4888,49.13987,55.9979
204673.2,232.1854,292.6545,49.25903,55.65131
204689.9,233.0966,289.7008,49.36996,55.38007
204707.3,233.9071,286.928,49.46822,55.122
204728,234.4848,284.8052,49.53802,54.92215
204740,235.6782,281.9357,49.68158,54.64882
204756.3,236.8346,279.4364,49.81988,54.40771
204772.2,237.1859,277.6944,49.86172,54.23795
204791,236.7686,276.1193,49.812,54.08326
204807.6,236.6544,273.9845,49.79838,53.87174
204824.3,236.7606,271.7776,49.81104,53.6508
204841.6,236.746,269.9695,49.80931,53.46805
204858.2,236.3544,268.4034,49.76253,53.30847
204872,235.8565,266.2246,49.70295,53.08446
204891.5,235.1217,263.9783,49.61474,52.85104
204908,234.5185,262.5686,49.54209,52.70327
204924.8,233.9268,261.641,49.4706,52.60548
204941.9,233.0356,260.1716,49.36256,52.44968
204965.1,232.3857,259.477,49.28346,52.37564
204979.6,231.6438,259.2789,49.19285,52.35448
204991.9,230.9154,259.2455,49.10357,52.35091
205008.7,230.1305,259.2252,49.00701,52.34874
205025,229.4488,259.1926,48.92283,52.34526
205044.1,228.9592,259.5303,48.8622,52.38133
205060.3,228.3974,260.0323,48.79245,52.43484
205077.5,228.0568,260.201,48.75006,52.4528
205090.9,227.8696,260.2856,48.72673,52.4618
205109.8,227.8214,260.9089,48.72073,52.52799
205127.6,227.7025,262.0024,48.70589,52.64363
205145,227.5718,262.3772,48.68959,52.68313
205162.9,227.7641,262.4915,48.71359,52.69516
205177.6,228.0784,262.7995,48.75275,52.72755
205192.4,228.136,263.0202,48.75992,52.75072
205211.7,228.437,262.4111,48.79737,52.6867
205226,228.7468,261.9259,48.83585,52.63556
205245.5,228.5671,261.7139,48.81353,52.61318
205261.8,228.5456,261.448,48.81087,52.58508
205287.3,228.7132,261.2205,48.83167,52.561
205302.8,229.056,260.5959,48.8742,52.49479
205317.9,229.8423,259.7844,48.97145,52.40844
205331.2,230.4994,258.9393,49.05244,52.31816
205348.8,230.9483,258.2217,49.10762,52.24121
205359.6,231.3804,257.1777,49.16061,52.12878
205374.8,232.1202,254.8298,49.25107,51.87384
205395.5,233.1318,252.8101,49.37424,51.65221
205409.5,233.7627,251.2817,49.45075,51.48303
205426.3,233.9825,249.4576,49.47734,51.27948
205444.7,234.8289,246.9997,49.57949,51.0023
205461,236.4449,244.9006,49.77335,50.76294
205478.3,237.782,243.6091,49.93259,50.61444
205493.3,238.5042,242.4028,50.01816,50.47489
205511,239.2587,240.2359,50.10723,50.22211
205529.8,240.8378,238.2752,50.29259,49.99106
205545.4,243.4905,236.7054,50.60075,49.80446
205561.5,245.7851,235.5438,50.8641,49.66544
205576,248.0216,234.6694,51.11795,49.56028
205596,250.7183,234.3895,51.42036,49.52652
205612.5,253.1959,233.9023,51.69471,49.46765
205626.8,256.5535,233.4876,52.06129,49.41742
205645.4,258.6734,233.6474,52.28967,49.43679
205660.9,260.6079,233.5051,52.49606,49.41954
205678.1,262.6176,233.0834,52.70842,49.36836
205691.8,265.2114,232.6779,52.9795,49.31905
205710.4,267.3939,232.7152,53.20497,49.32359
205726.3,269.4141,232.9062,53.41159,49.34682
205743.4,270.8435,233.0145,53.55659,49.36
205759.7,271.9594,233.1478,53.66909,49.37618
205776.9,273.5178,233.4038,53.82521,49.40726
205795,274.7443,233.7682,53.94727,49.45142
205809.9,275.8752,234.1234,54.05918,49.49437
205831,275.5023,234.8734,54.02234,49.58486
205863.1,275.0666,235.2215,53.97923,49.62673
205877.8,274.4497,235.4536,53.91802,49.65461
205886,274.1938,235.5911,53.89257,49.67113
205896,273.8867,235.8566,53.862,49.70296
205909.4,273.3175,235.8978,53.80521,49.7079
205926.8,272.386,235.674,53.71194,49.68106
205943.1,271.6335,235.753,53.6363,49.69054
205959.6,270.8951,235.9138,53.5618,49.70982
205976.3,269.9193,235.689,53.46295,49.68287
205994,269.22,235.2248,53.39183,49.62714
206010.1,268.3703,234.5927,53.30509,49.55103
206027.4,266.9697,234.1877,53.16133,49.50215
206046.5,265.81,233.6201,53.04157,49.43348
206061.6,265.1565,232.9191,52.97379,49.3484
206077.8,264.7002,231.838,52.92633,49.2166
206094.5,264.2486,230.8989,52.87927,49.10155
206110.8,264.1977,231.7227,52.87395,49.2025
206127.2,264.1525,231.6924,52.86924,49.1988
206143.7,264.5473,230.5356,52.91041,49.0569
206164.3,265.2786,229.7659,52.98647,48.96202
206177.2,266.2468,229.4868,53.08675,48.92752
206193,267.6453,229.9548,53.23079,48.98534
206211.8,268.6492,230.0253,53.3336,48.99403
206228.3,269.4707,229.6553,53.41736,48.94836
206244.8,270.7057,229.3851,53.54266,48.91494
206264.9,272.1949,229.249,53.69276,48.89811
206279.8,273.8759,229.2685,53.86092,48.90052
206294,275.2627,229.6734,53.99864,48.9506
206310,276.465,229.7824,54.11731,48.96405
206330.4,277.9549,230.1539,54.26343,49.0099
206343.4,279.4752,230.6487,54.41146,49.0708
206361.3,280.7602,230.8256,54.53576,49.09254
206378.7,281.9791,230.9678,54.65297,49.11
206395,283.2394,231.3587,54.77346,49.15794
206413.5,284.5284,231.8324,54.89594,49.21592
206429.1,286.9171,232.7295,55.12098,49.32533
206448.3,288.8745,233.3129,55.30351,49.39623
206462.5,291.495,233.8248,55.54528,49.45827
206478.3,293.4145,234.2303,55.7205,49.5073
206494.7,295.6539,234.3249,55.92296,49.51872
206515.9,297.8241,233.7457,56.11716,49.44868
206529.7,300.6401,232.8504,56.36627,49.34004
206543.6,303.7103,231.8466,56.6342,49.21766
206562.5,305.9391,230.5499,56.82635,49.05865
206579.6,308.0446,228.7615,57.00609,48.83767
206596,310.8213,227.3722,57.24048,48.66466
206613.5,312.817,227.0132,57.40713,48.61975
206628.6,313.6415,227.2044,57.47553,48.64368
206646.2,313.8257,227.1727,57.49078,48.63972
