Time Stamp(ms),Intersection,,Angle,
,x,y,x,y
773819.2,318.7018,251.3947,57.88985,51.49558
773837.1,318.7778,251.7164,57.89599,51.53128
773852.6,318.7839,251.9003,57.89648,51.55165
773870.3,318.6068,251.9519,57.88216,51.55738
773888.7,318.5114,252.2717,57.87442,51.59275
773906.4,318.4749,252.7913,57.87147,51.65014
773924.5,318.5421,253.3185,57.87691,51.70821
773940.3,318.583,253.8078,57.88023,51.76197
773955.9,318.564,254.0685,57.87868,51.79056
773972.1,318.5839,253.9624,57.8803,51.77893
773989.5,319.0316,253.4877,57.91652,51.72681
774007.4,319.9198,253.1979,57.98816,51.69494
774023.8,320.6969,252.9855,58.05061,51.67154
774039.8,320.72,252.9233,58.05246,51.66468
774054.7,320.0355,253.0925,57.99747,51.68333
774072.4,319.4259,253.316,57.94836,51.70793
774089.1,319.0275,253.5346,57.91619,51.73196
774108.3,318.791,253.8807,57.89706,51.76996
774123.9,318.9994,254.2114,57.91392,51.80621
774140.6,319.3458,254.8262,57.94189,51.87345
774155.9,319.5855,255.8468,57.96123,51.98463
774172.3,319.5248,257.457,57.95634,52.15891
774191.3,319.1748,258.9507,57.92809,52.31937
774206.9,318.3698,260.6,57.86295,52.49522
774222.7,317.2016,261.9167,57.76801,52.63459
774240.1,315.9591,263.0539,57.66646,52.75426
774255.9,314.5849,263.931,57.55349,52.8461
774271.5,313.1493,264.515,57.43473,52.90705
774292.3,312.0967,265.166,57.34716,52.97478
774304.6,310.7022,265.62,57.23048,53.02188
774322,309.5049,265.9545,57.12972,53.05653
774339.1,308.3844,265.8302,57.03493,53.04366
774355.3,307.3882,265.7895,56.95024,53.03945
774373.8,306.4592,265.8719,56.87091,53.04798
774388.8,305.7504,266.035,56.81017,53.06485
774405.4,305.1204,266.2545,56.756,53.08755
774421.6,304.7775,266.7642,56.72646,53.14016
774440.7,304.59,267.3561,56.71028,53.20108
774456.4,304.6352,267.9859,56.71418,53.26572
774470.4,304.9411,268.5719,56.74056,53.3257
774488.4,305.0203,269.1636,56.74738,53.38609
774506.4,304.9143,269.5121,56.73825,53.42157
774521.3,304.678,269.8189,56.71787,53.45275
774538.6,304.4925,270.1666,56.70187,53.48805
774554,304.2366,270.6599,56.67976,53.53801
774571.3,303.7657,271.2658,56.639,53.59924
774590.1,303.2132,271.8374,56.59108,53.65682
774604.1,302.3123,272.735,56.51268,53.74694
774622.5,301.6178,273.4508,56.452,53.81853
774637.9,300.8177,274.2296,56.38188,53.89614
774653.7,299.7846,274.8893,56.29094,53.96165
774674.9,298.8457,275.3946,56.20792,54.0117
774689.9,298.0046,275.9753,56.13323,54.06906
774705.1,297.3975,276.5999,56.07914,54.13058
774723.6,296.8833,277.1291,56.03321,54.18257
774738.3,296.2343,277.7256,55.97509,54.24101
774754.1,295.5079,278.3098,55.90983,54.29808
774771.1,294.7814,278.8551,55.84433,54.35122
774788.4,294.273,279.3316,55.79837,54.39753
774805.4,293.8518,279.7987,55.7602,54.44283
774821.2,293.4146,280.3305,55.72051,54.49428
774837.6,293.0544,280.6943,55.68774,54.52941
774853.3,292.7228,281.1859,55.65754,54.57677
774870.4,292.4856,281.6125,55.6359,54.61779
774887.5,292.2326,282.0508,55.6128,54.65985
774905.2,291.9952,282.4001,55.59109,54.69331
774920.8,291.6511,282.9078,55.55958,54.74183
774937.9,291.2623,283.4011,55.52393,54.78886
774953.3,290.7065,284.0128,55.47284,54.84704
774970.8,290.0831,284.6899,55.41538,54.91124
774988.4,289.3102,285.4218,55.34391,54.9804
775004.9,288.3919,286.0641,55.25866,55.0409
775022.3,287.6911,286.5296,55.19336,55.08464
775038,286.8564,286.9767,55.11529,55.12656
775054.3,285.6514,287.383,55.00206,55.16457
775071.3,284.5654,287.5232,54.89945,55.17767
775087.6,283.6227,287.575,54.80996,55.18251
775104.3,283.033,287.5774,54.75378,55.18274
775121.8,282.4477,287.7786,54.69785,55.20152
775138.4,281.8356,288.0021,54.63921,55.22237
775154.2,281.2684,288.3466,54.58472,55.25445
775174.1,280.8918,288.7748,54.54845,55.29426
775190.6,280.5549,289.2235,54.51596,55.33588
775204.4,280.2621,289.8943,54.48768,55.39795
775222.6,279.9341,291.1772,54.45594,55.51612
775238,279.3309,292.9781,54.39746,55.6808
775256,278.4404,295.6839,54.31082,55.92566
775271.9,277.5794,299.6499,54.2267,56.27905
775293.2,277.0529,303.2649,54.17509,56.59557
775304.8,276.3802,307.1878,54.10897,56.93316
775322.1,275.4187,309.5676,54.01408,57.13502
775338.1,274.3403,311.9199,53.90714,57.33241
775354.1,273.0531,314.1144,53.77878,57.51466
775371.6,271.8502,315.3338,53.65811,57.61515
775388.4,270.9464,315.4296,53.56698,57.62302
775405,270.0606,316.0173,53.47729,57.67123
775424.1,268.9167,316.7889,53.36091,57.73434
775439.4,267.5935,317.3874,53.22548,57.78314
775455.3,266.6446,317.8427,53.12782,57.82017
775476.6,265.6646,318.1423,53.02651,57.8445
775496,265.0112,318.3402,52.95869,57.86055
775507.6,264.4941,318.6156,52.90487,57.88287
775524.8,264.039,318.8716,52.85739,57.90358
775538.3,263.7421,318.9729,52.82636,57.91177
775554.7,263.6039,318.9581,52.8119,57.91058
775571.6,263.9306,318.6285,52.84606,57.88391
775594.3,264.2844,318.4503,52.883,57.86948
775610.4,264.8626,318.2329,52.94324,57.85185
775624.8,265.3238,318.1663,52.99117,57.84644
775641.6,265.7676,318.129,53.03718,57.84342
775656.8,266.3523,317.9598,53.09765,57.82968
775675.1,266.9743,317.64,53.1618,57.80369
775690,267.6918,317.1789,53.23557,57.76615
775705.7,268.5902,316.4905,53.32757,57.70996
775723.2,269.5389,315.6758,53.4243,57.64323
775745.5,270.2098,315.104,53.49243,57.59625
775756.8,271.3083,314.0931,53.60352,57.5129
775772.4,272.3462,313.0397,53.70795,57.42563
775792.3,273.2915,312.0085,53.80262,57.3398
775812.7,273.9326,311.0952,53.86657,57.26344
775827.7,274.1331,310.2677,53.88654,57.19398
775842.3,274.1841,309.4543,53.89161,57.12546
775860.1,274.0956,308.6033,53.8828,57.05349
775875.8,273.7541,307.5592,53.84879,56.9648
775892.1,273.4066,306.4486,53.81411,56.87001
775909.9,272.8093,305.3043,53.75438,56.77182
775925.7,271.7697,303.7196,53.65001,56.63501
775951.5,270.5961,301.8605,53.53156,56.47323
775964.7,269.3828,300.3629,53.40841,56.3419
775977.4,268.0645,298.5727,53.27378,56.1837
775992.5,266.5107,296.6646,53.11401,56.01365
776010.9,264.4637,294.6398,52.9017,55.83154
776028.5,262.6314,292.8765,52.70987,55.67155
776042.4,260.212,290.4574,52.45398,55.4499
776060.6,258.1014,288.7207,52.22828,55.28923
776077.1,255.7587,287.2352,51.97505,55.15075
776093.2,252.3558,285.9276,51.60205,55.02807
776107.6,247.5024,285.1162,51.05926,54.95155
776129.1,243.9913,284.9803,50.65848,54.93871
776143.6,239.4675,285.5668,50.13182,54.99408
776160.3,233.9747,286.6771,49.4764,55.09848
776178,228.539,288.7083,48.81004,55.28807
776194,222.6046,291.7286,48.06176,55.56668
776210,218.1366,293.4043,47.48364,55.71957
776226.4,215.4932,293.925,47.1355,55.76684
776242.8,212.7975,294.189,46.77571,55.79076
776259.8,210.8259,294.5808,46.50948,55.82621
776275.7,209.0803,295.0576,46.27158,55.86926
776293.8,207.5875,295.4823,46.06647,55.90752
776309.8,206.1589,295.9093,45.86875,55.94592
776326.4,204.8846,296.4354,45.6912,55.99312
776343.4,204.344,296.8586,45.61553,56.031
776359.7,203.056,297.0098,45.43441,56.04453
776375.4,202.2044,297.0175,45.31402,56.04522
776394.5,202.6387,296.9144,45.37549,56.036
776411.2,202.2471,296.9965,45.32008,56.04333
776427.5,201.6586,297.4813,45.23659,56.08662
776442.9,201.505,297.9254,45.21477,56.12618
776460.1,202.084,298.4391,45.29696,56.17184
776476.8,202.6395,298.8145,45.37559,56.20515
776493.5,203.7646,299.1257,45.5342,56.23271
776510.6,204.8846,299.4853,45.6912,56.26451
776526.2,206.1294,299.8232,45.86465,56.29434
776542.6,207.8616,300.0863,46.10424,56.31754
776559.3,209.1492,300.0934,46.281,56.31816
776575.1,210.6395,300.1514,46.48418,56.32328
776592.6,212.1702,300.1728,46.69129,56.32516
776610.3,213.0067,300.0011,46.8038,56.31003
776626.2,216.1308,299.0973,47.21989,56.2302
776643.3,218.8018,298.5519,47.57053,56.18186
776660.1,221.2661,297.9603,47.88992,56.12929
776677.9,224.6927,297.2703,48.32757,56.06779
776692.6,228.6398,296.2393,48.82257,55.97554
776709.6,232.8523,295.0289,49.34027,55.86666
776727.3,236.6894,293.8459,49.80254,55.75967
776745.2,241.6293,291.8784,50.38496,55.5804
776762.1,246.0158,289.8833,50.8904,55.39693
776777.8,252.3658,287.0415,51.60316,55.13263
776793.2,261.064,283.14,52.54443,54.76397
776812.3,266.6519,280.3431,53.12858,54.4955
776826.9,271.4974,277.0409,53.62259,54.17392
776844.4,276.9831,272.3989,54.16824,53.71323
776863.3,281.2745,268.8466,54.5853,53.35375
776882.1,284.9956,265.1609,54.94016,52.97424
776895.4,286.2806,260.8659,55.06126,52.52343
776911.8,288.105,256.5556,55.23195,52.06152
776926.4,289.4537,252.4773,55.3572,51.61548
776944.5,290.2095,248.9885,55.42705,51.22683
776961.7,291.1667,245.4595,55.51515,50.82691
776979,291.3481,242.6385,55.5318,50.50222
776995.3,292.0187,239.3571,55.59324,50.11882
777013.5,292.7834,234.9736,55.66306,49.59691
777028.6,293.9907,231.2448,55.77279,49.14399
777049.1,295.0081,228.5941,55.8648,48.81689
777063.8,295.1966,227.7185,55.88178,48.70789
777077.4,295.9581,226.5741,55.9503,48.56473
777095.8,297.0097,225.813,56.04452,48.46905
777115.8,298.2889,225.3629,56.15851,48.4123
777131,299.3897,224.8015,56.25606,48.34135
777144.4,300.4449,224.906,56.34911,48.35457
777160.9,301.6972,224.7726,56.45895,48.33769
777177.6,303.4357,224.6458,56.61039,48.32164
777197.1,305.8748,224.6797,56.82084,48.32592
777216.4,307.8114,224.8446,56.98627,48.34681
777231.3,309.7519,225.2171,57.15056,48.3939
777247.9,311.6664,225.5152,57.31123,48.43153
777262.5,314.5022,225.9557,57.54668,48.48702
777281.9,317.4362,226.6306,57.78711,48.57181
777298.6,320.8241,227.7895,58.06081,48.71675
777311.9,324.8763,229.6018,58.38276,48.94174
777330.1,329.978,232.0301,58.7799,49.24007
777347.8,335.6279,234.4994,59.20937,49.53978
777365.3,341.9078,237.224,59.67437,49.86626
777380.9,348.0331,239.9372,60.11583,50.18706
777400.4,353.0672,241.9647,60.46999,50.424
777413.4,358.7133,244.6201,60.85822,50.73077
777429.3,365.1325,248.5505,61.28843,51.17757
777446.2,370.9239,252.9821,61.66671,51.67117
777463.1,376.1519,258.496,62.00042,52.27065
777480.9,380.518,263.4801,62.27362,52.79894
777497.5,383.9517,267.9639,62.48504,53.26347
777513.1,386.9742,272.3531,62.66871,53.70864
777534.3,389.9059,276.7683,62.8447,54.14714
777547,391.8643,281.8777,62.96111,54.64325
777563.8,393.9779,287.2439,63.0857,55.15157
777581.4,395.6139,291.732,63.18142,55.567
777597.9,396.2338,295.55,63.21753,55.91361
777614.1,397.0171,300.5005,63.26301,56.354
777631.3,396.4899,306.1272,63.23241,56.84248
777648.9,396.0793,310.9223,63.20853,57.24895
777665.3,395.4859,314.0143,63.17395,57.50638
777681.1,396.1352,316.9689,63.21178,57.74903
777706.9,396.8576,317.5637,63.25376,57.79749
777717.8,397.2758,318.7173,63.27801,57.8911
777727.9,397.5655,319.7284,63.29478,57.97275
777755.4,397.4879,320.8339,63.29029,58.06159
777768,397.2278,321.4315,63.27523,58.10944
777781.9,397.3105,321.8418,63.28002,58.14222
777796.8,397.6151,322.3662,63.29765,58.18402
777818.1,397.6531,323.1546,63.29985,58.24669
777832.4,397.7688,324.3826,63.30654,58.34385
777851.5,398.3435,325.6204,63.33973,58.44125
777864.1,399.1185,326.9193,63.38435,58.54288
777892.1,400.2596,329.2551,63.44981,58.72417
777903.4,400.7187,330.1979,63.47607,58.79682
777913.4,401.6966,331.9799,63.53183,58.9333
777928.9,403.3248,334.2029,63.62419,59.10206
777948.6,404.7631,336.2067,63.70528,59.25277
777964.1,406.3705,338.6143,63.79535,59.4321
777977.8,407.987,341.4583,63.88537,59.64151
777997.8,409.0337,344.0181,63.94334,59.82779
778016.2,408.9818,345.2279,63.94048,59.91511
778033,408.5204,345.999,63.91494,59.97053
778046.3,407.6682,346.1887,63.86766,59.98413
778063.8,406.0469,346.1826,63.77727,59.9837
778081.6,404.5068,346.3849,63.69086,59.9982
778097,402.7981,346.6131,63.59438,60.01453
778112.9,400.7418,346.725,63.47739,60.02253
778131.2,398.9042,346.8368,63.37203,60.03053
778148.6,397.0943,346.8332,63.26749,60.03027
778165.1,395.4948,346.727,63.17448,60.02267
778181.4,393.5349,346.8366,63.05968,60.03051
778201.1,392.235,346.9436,62.98304,60.03816
778214.9,390.7236,347.1429,62.89342,60.05239
778231.4,389.2588,347.3355,62.80604,60.06614
778247.1,388.0694,347.5346,62.7347,60.08033
778265.6,387.2122,347.673,62.68307,60.09019
778281.9,386.523,347.7475,62.64143,60.0955
778298.8,385.9761,347.6619,62.60831,60.08941
778315.2,385.402,347.6429,62.57346,60.08805
778332.3,385.0195,347.6587,62.55019,60.08918
778349.5,384.7679,347.6327,62.53487,60.08733
778366.1,384.7104,347.6288,62.53136,60.08704
778381.9,384.6969,347.4792,62.53054,60.07639
778398.6,384.6836,347.3262,62.52973,60.06548
778413.8,384.6711,347.2647,62.52896,60.06109
778431.1,384.522,347.0585,62.51987,60.04637
778450.9,384.3505,346.9294,62.50941,60.03714
778467.8,384.0942,346.7481,62.49375,60.02419
778484.6,383.9286,346.564,62.48363,60.01101
778500.2,383.7247,346.4685,62.47116,60.00418
778515.5,383.4894,346.4793,62.45675,60.00495
778532.6,383.3469,346.7148,62.44802,60.0218
778551.6,383.3895,346.8419,62.45063,60.0309
778567,383.1915,346.9041,62.43849,60.03534
778583.7,382.9013,346.9614,62.42068,60.03943
778600.4,382.7124,346.9057,62.40908,60.03545
778620,382.5073,346.8574,62.39647,60.032
778633,382.1705,346.9225,62.37574,60.03666
778649.5,381.7095,346.8855,62.34732,60.03401
778667.9,381.2177,346.9167,62.31694,60.03624
778684.2,380.7359,346.8664,62.28712,60.03265
778700.3,380.3889,346.7746,62.26561,60.02608
778717.9,380.0886,346.5789,62.24696,60.01208
778732.8,379.64,346.2405,62.21907,59.98785
778753.3,379.4056,345.968,62.20448,59.9683
778766.9,379.2513,345.9265,62.19486,59.96532
778783.5,379.0794,345.8606,62.18414,59.96059
778800.4,379.0185,345.8611,62.18034,59.96063
778815.3,379.1935,345.6471,62.19126,59.94526
778832,379.3117,345.408,62.19863,59.92807
778850.3,379.4857,345.3655,62.20946,59.92501
778867.9,379.6429,345.3502,62.21925,59.92391
778881.9,379.9038,345.2726,62.23548,59.91833
778899.4,380.1787,345.1282,62.25256,59.90793
778917.2,380.3327,344.9295,62.26212,59.89361
778933.5,380.3615,344.5724,62.26391,59.86786
778951.7,380.4161,344.4384,62.26729,59.85818
778968.8,380.478,344.1113,62.27114,59.83453
778984.6,380.7616,343.8542,62.28871,59.81592
779003.1,380.9472,343.5842,62.30021,59.79636
779021.8,381.2131,343.3541,62.31666,59.77967
779038.3,381.5291,343.0947,62.33618,59.76083
779050.8,382.0838,342.7055,62.3704,59.73253
779070.8,382.8459,342.0732,62.41728,59.68645
779084.1,384.1479,341.1489,62.49703,59.61885
779104.4,385.3681,340.3925,62.5714,59.56334
779119.1,387.0039,338.972,62.67051,59.45857
779132.8,388.5231,337.2581,62.76196,59.33131
779152.2,389.6764,335.7208,62.831,59.21634
779167.3,390.5806,333.5142,62.88491,59.04995
779184.7,391.4515,331.0931,62.93665,58.86552
779202.4,392.4734,328.299,62.99712,58.6502
779218.2,394.4879,324.4763,63.11561,58.35124
779235.2,396.9376,320.7592,63.2584,58.05561
779253,399.7553,316.758,63.42092,57.73181
779269.4,402.6438,312.444,63.58563,57.37609
779286.4,405.4109,308.4345,63.74165,57.03918
779302.2,408.5269,304.5411,63.9153,56.70606
779321.3,411.3881,301.3235,64.07288,56.42624
779337.9,413.6698,298.9531,64.19728,56.21743
779353.6,415.8117,296.8961,64.31306,56.03436
779368.5,417.7344,295.1148,64.41615,55.87442
779385.1,419.3185,293.8036,64.50052,55.75583
779401.6,420.8352,292.3704,64.58081,55.62539
779419.8,421.9486,291.106,64.63945,55.50957
779435.5,422.4388,290.2726,64.66519,55.43286
779449.8,423.4425,289.2338,64.71774,55.33684
779471.4,424.3611,288.4678,64.76566,55.26572
779486.4,425.3337,287.5967,64.8162,55.18455
779502.1,426.0038,286.8617,64.85091,55.11579
779518.1,425.8994,286.3444,64.84551,55.06725
779534.9,426.1117,285.6327,64.85649,55.00029
779552.7,426.0903,285.0134,64.85538,54.94184
779569.4,426.223,284.5305,64.86225,54.89614
779584.8,426.0574,284.1541,64.85368,54.86045
779602.3,425.3902,283.9029,64.81913,54.83659
779618.1,424.8146,283.6614,64.78925,54.81364
779637.5,424.0395,283.57,64.74889,54.80495
779656.9,423.5849,283.3707,64.72517,54.78596
779672.2,423.1107,283.3384,64.70039,54.78289
779687.6,422.6417,283.3373,64.67583,54.78279
779701.8,421.7204,283.5229,64.62745,54.80046
779718.4,420.9061,283.7708,64.58455,54.82404
779734.3,420.0887,283.9478,64.54135,54.84087
779752.8,419.3338,284.0014,64.50134,54.84596
779769.9,418.394,284.1157,64.45134,54.8568
779786.2,417.3603,284.1854,64.39616,54.86342
779803.3,416.0654,284.3003,64.32671,54.87432
779819.6,414.4337,284.4473,64.23868,54.88826
779835.5,413.0679,284.3807,64.16457,54.88195
779855.1,411.5819,284.1295,64.0835,54.85812
779871.8,410.6453,283.8802,64.03214,54.83444
779885.8,409.7183,283.7008,63.98113,54.81739
779902.8,408.6766,283.4954,63.92359,54.79784
779921,407.6301,283.4297,63.86554,54.79159
779938.7,406.4324,283.2651,63.79881,54.7759
779954.8,405.2265,283.0505,63.7313,54.75545
779974.5,404.3641,282.8335,63.68283,54.73473
779986.8,403.4139,282.7094,63.62922,54.72288
780002.4,402.4304,282.7174,63.57352,54.72364
780019.1,401.5004,282.7924,63.52066,54.73081
780038,401.0216,282.8382,63.49336,54.73518
780051.3,400.6651,282.8099,63.473,54.73248
780067.3,400.3901,282.8771,63.45728,54.7389
780085.6,400.2923,283.0869,63.45169,54.75891
780104.7,400.1601,283.2261,63.44412,54.77219
780120.9,400.167,283.3761,63.44451,54.78648
780136.5,400.4084,283.6467,63.45833,54.81224
780154.3,400.6609,283.9035,63.47277,54.83665
780170.8,400.9894,284.1589,63.49152,54.86091
780188.3,401.2857,284.4955,63.50842,54.89283
780205.6,401.6115,284.9084,63.52699,54.93191
780223.2,401.7959,285.321,63.53748,54.97089
780239.1,401.9274,285.784,63.54496,55.01455
780254.3,402.1205,286.4423,63.55593,55.07645
780273.2,402.2448,286.8073,63.56299,55.11069
780288,402.3957,287.3235,63.57156,55.15901
780304.6,402.9409,288.0672,63.60247,55.22843
780323.3,403.4587,289.0916,63.63176,55.32365
780338.9,403.908,289.9735,63.65712,55.40527
780353.2,404.6315,290.9211,63.69788,55.49258
780370.6,405.0383,291.7425,63.72074,55.56796
780387,405.0778,292.549,63.72296,55.64169
780408.4,404.8371,293.0197,63.70944,55.68459
780423,404.4449,293.4152,63.68738,55.72056
780438.2,403.9616,293.8065,63.66015,55.7561
780453.4,403.2726,294.2452,63.62123,55.79585
780470.1,402.1265,294.8536,63.55627,55.85085
780488,400.4414,295.9131,63.46022,55.94626
780511.6,399.0663,296.7506,63.38135,56.02134
780527.9,397.7188,297.4588,63.30365,56.08461
780537.9,396.1225,298.455,63.21105,56.17326
780554.9,394.4475,299.7132,63.11324,56.28463
780572.9,392.4615,301.2566,62.99642,56.42038
780590.8,390.8415,302.384,62.90043,56.51892
780608,389.5452,303.1953,62.82316,56.58953
780623,388.5022,304.1195,62.7607,56.66964
780640.1,387.4125,305.282,62.69516,56.76991
780656.2,386.1351,306.4475,62.61795,56.86991
780672.8,385.1288,307.4462,62.55684,56.95518
780691.3,384.0739,308.5945,62.49251,57.05274
780707,382.9125,309.735,62.42137,57.14913
780731.2,381.8221,310.7672,62.35427,57.23594
780748.4,380.6405,311.5536,62.28121,57.30181
780760.5,379.395,312.256,62.20382,57.36043
780778.9,378.5023,312.7684,62.1481,57.40308
780789.5,377.4234,313.0558,62.08049,57.42696
780807.3,376.5818,313.5067,62.02753,57.46436
780821.8,375.9007,313.9561,61.98455,57.50158
780840.3,375.2041,314.4742,61.94046,57.54437
780856.6,374.6228,314.8871,61.90356,57.5784
780873.7,374.25,315.1257,61.87986,57.59804
780890.1,373.9415,315.2747,61.86021,57.61029
780907.8,373.8675,315.3886,61.8555,57.61965
780923.4,373.649,315.7543,61.84156,57.64967
780940.1,373.4207,316.1283,61.82699,57.68032
780960.7,373.423,316.4058,61.82714,57.70303
780973.3,373.373,316.6191,61.82394,57.72047
780989.9,373.2888,316.8916,61.81856,57.74272
781006.7,373.1733,317.1699,61.81118,57.76542
781025.1,372.9554,317.2988,61.79725,57.77592
781039.7,372.7019,317.425,61.78102,57.7862
781054.9,372.5108,317.5234,61.76877,57.7942
781073,372.2556,317.4593,61.7524,57.78899
781090.3,372.0158,317.488,61.73701,57.79133
781108.1,371.8432,317.3535,61.72592,57.78037
781124.5,371.6383,317.3065,61.71274,57.77655
781139.5,371.4676,317.3212,61.70176,57.77774
781156.3,371.2293,317.3807,61.68641,57.78259
781173.8,370.8848,317.4422,61.66419,57.78759
781189.9,370.5221,317.4006,61.64077,57.78421
781206.4,370.1159,317.5024,61.61449,57.7925
781224.1,369.6,317.6674,61.58105,57.80592
781242.3,369.0677,317.7368,61.54647,57.81156
781264.3,368.3829,318.0985,61.50187,57.84095
781276.4,367.9315,318.2964,61.4724,57.857
781289,367.5093,318.5915,61.4448,57.88091
781306.9,367.1779,318.7566,61.42309,57.89428
