Time Stamp(ms),Intersection,,Angle,
,x,y,x,y
1947400,322.2181,247.1795,58.17223,51.02269
1947423,322.3363,247.2783,58.18164,51.03388
1947447,322.3974,247.324,58.18651,51.03906
1947472,322.5231,247.3555,58.19651,51.04263
1947492,322.5603,247.3348,58.19947,51.04028
1947517,322.5606,247.2925,58.19949,51.03549
1947540,322.663,247.3428,58.20763,51.04119
1947563,322.8958,247.4589,58.22614,51.05433
1947587,323.1749,247.8384,58.24829,51.09726
1947611,323.33,248.0835,58.26059,51.12492
1947634,323.3725,248.1501,58.26396,51.13244
1947661,323.5119,248.22,58.27501,51.14033
1947682,323.6003,248.4731,58.28201,51.16886
1947713,323.6509,248.7176,58.28602,51.19637
1947734,323.6988,248.9931,58.28981,51.22734
1947757,323.7522,249.3136,58.29404,51.26333
1947781,323.8639,249.7294,58.30287,51.30992
1947809,324.1077,250.1948,58.32214,51.36196
1947829,324.3073,250.7146,58.33791,51.41994
1947853,324.6204,251.6546,58.3626,51.52443
1947875,324.9871,252.893,58.39148,51.66135
1947899,325.6179,255.1785,58.44105,51.91189
1947925,326.1412,257.9149,58.48207,52.20823
1947950,327.5061,262.1863,58.5886,52.66302
1947973,329.0309,266.205,58.70686,53.08244
1947997,330.9023,271.1373,58.8509,53.58627
1948022,332.6701,276.7287,58.98588,54.14325
1948046,333.9198,282.4236,59.08066,54.69555
1948070,335.1326,289.3101,59.17215,55.34391
1948093,336.1381,296.5982,59.24763,56.00771
1948118,337.7177,305.3403,59.36553,56.77493
1948143,340.3044,313.7071,59.55685,57.48097
1948170,342.688,320.7547,59.73125,58.05524
1948192,345.1154,327.7571,59.90701,58.60813
1948215,347.1686,333.4072,60.05423,59.04184
1948241,349.8052,339.7398,60.24137,59.51529
1948267,352.3823,345.0179,60.42226,59.89998
1948290,354.9002,350.4308,60.59706,60.28547
1948311,357.5984,355.494,60.7823,60.63801
1948336,360.02,359.1334,60.94674,60.88673
1948359,361.8058,362.2733,61.06694,61.09826
1948382,362.8106,363.83,61.13417,61.20208
1948409,363.6472,365.0342,61.18993,61.28194
1948431,364.2901,366.2987,61.23264,61.36535
1948455,364.6642,367.6724,61.25745,61.45547
1948479,365.1471,368.9093,61.2894,61.53617
1948502,365.4221,369.3136,61.30757,61.56245
1948528,365.6661,369.6408,61.32368,61.58369
1948551,366.0025,369.8973,61.34585,61.60033
1948575,366.371,370.1774,61.37011,61.61847
1948597,366.7168,370.5252,61.39283,61.64096
1948624,367.03,370.9003,61.41339,61.66519
1948646,367.3072,371.1775,61.43156,61.68307
1948669,367.4799,371.3731,61.44287,61.69567
1948693,367.6162,371.592,61.45179,61.70977
1948716,367.6217,371.9364,61.45215,61.73191
1948741,367.5592,372.2235,61.44806,61.75035
1948766,367.4096,372.3288,61.43827,61.7571
1948790,367.1704,372.6512,61.4226,61.77777
1948814,367.0032,372.8315,61.41163,61.78932
1948836,366.7766,373.0435,61.39676,61.80288
1948861,366.5485,373.2475,61.38178,61.81593
1948886,366.2932,373.2078,61.36499,61.81339
1948909,366.0518,373.2304,61.3491,61.81483
1948932,365.7846,373.3323,61.33149,61.82134
1948956,365.8364,373.4752,61.3349,61.83047
1948979,365.7949,373.3619,61.33217,61.82324
1949004,365.6644,373.3478,61.32356,61.82233
1949029,365.5031,373.4426,61.31292,61.82839
1949051,365.3885,373.4138,61.30535,61.82655
1949076,365.1713,373.3144,61.291,61.8202
1949099,365.049,373.2167,61.28292,61.81396
1949124,364.9395,373.2266,61.27567,61.81459
1949149,364.8897,373.244,61.27238,61.8157
1949177,364.8708,373.2003,61.27113,61.8129
1949196,365.0148,373.0815,61.28065,61.80531
1949221,365.2678,372.8464,61.29737,61.79027
1949246,365.7536,372.3132,61.32944,61.7561
1949268,366.355,371.7509,61.36905,61.71998
1949292,367.3638,371.0603,61.43526,61.67551
1949316,368.2593,370.5068,61.49381,61.63978
1949339,369.7013,369.4496,61.58762,61.57129
1949365,371.0284,368.5952,61.67345,61.51571
1949386,372.7581,367.9033,61.78461,61.47056
1949414,375.0378,366.9693,61.92991,61.40941
1949434,377.3178,366.0261,62.07385,61.34741
1949457,379.8364,365.0442,62.23129,61.2826
1949481,382.3534,364.0107,62.387,61.2141
1949506,385.035,363.1028,62.55114,61.15366
1949529,387.8151,362.2774,62.7194,61.09853
1949552,390.4878,361.8498,62.87939,61.06989
1949577,392.7754,361.6144,63.01495,61.0541
1949601,394.4727,361.387,63.11472,61.03884
1949626,396.0122,361.1642,63.20463,61.02386
1949648,397.225,361.1453,63.27507,61.02259
1949672,398.2123,361.1647,63.33215,61.0239
1949697,398.517,361.3347,63.34973,61.03532
1949721,398.8131,361.5558,63.36678,61.05017
1949748,398.8868,361.76,63.37103,61.06387
1949769,398.8415,361.6544,63.36842,61.05679
1949795,398.7451,361.3281,63.36287,61.03487
1949819,398.6122,361.0886,63.35521,61.01878
1949842,398.5336,360.9137,63.35069,61.00701
1949866,398.481,360.8864,63.34765,61.00517
1949894,398.4968,360.6812,63.34856,60.99135
1949920,398.4815,360.3259,63.34768,60.9674
1949937,398.3182,360.3929,63.33826,60.97192
1949963,398.2313,360.3595,63.33325,60.96967
1949988,398.1445,360.2743,63.32824,60.96392
1950011,398.1011,360.3581,63.32574,60.96957
1950036,398.0819,360.4854,63.32463,60.97816
1950057,398.0094,360.4799,63.32044,60.97779
1950081,397.8318,360.5942,63.31018,60.98549
1950110,397.7924,360.6441,63.3079,60.98886
1950131,397.7399,360.6743,63.30487,60.99089
1950155,397.7083,360.5673,63.30304,60.98368
1950176,397.7204,360.4691,63.30374,60.97705
1950201,397.7106,360.1324,63.30317,60.95433
1950228,397.6287,359.6453,63.29844,60.92141
1950251,397.5694,359.0345,63.29501,60.88002
1950273,397.4033,358.1792,63.28539,60.8219
1950298,397.4309,356.8738,63.28699,60.73276
1950320,397.3645,355.3532,63.28315,60.62831
1950344,397.6842,353.652,63.30164,60.51064
1950369,398.3372,352.1401,63.33936,60.40534
1950390,399.1552,350.5629,63.38647,60.29477
1950416,400.5423,348.8034,63.46598,60.17052
1950438,402.221,347.2997,63.56164,60.06359
1950464,404.2472,345.9192,63.67624,59.9648
1950487,406.4093,344.3964,63.79752,59.85514
1950511,408.821,342.8397,63.93158,59.74229
1950536,411.1429,341.2147,64.05945,59.62367
1950560,413.5824,339.6389,64.19254,59.50784
1950585,416.0788,338.0289,64.32742,59.38867
1950608,418.6642,336.18,64.46574,59.25076
1950632,421.4524,333.9216,64.61335,59.0808
1950654,423.9128,330.9846,64.74229,58.85721
1950680,426.5244,327.1467,64.87782,58.56061
1950704,428.9377,323.4268,65.00185,58.26827
1950728,430.9466,320.5478,65.10424,58.03865
1950752,433.5421,318.1937,65.23536,57.84867
1950775,435.9707,316.3773,65.35688,57.7007
1950800,438.3735,313.9607,65.47601,57.50195
1950822,440.2776,311.5665,65.56966,57.30289
1950847,442.2749,308.8875,65.66716,57.07755
1950872,443.9223,307.0365,65.74704,56.92025
1950894,445.5137,305.2661,65.82374,56.76854
1950918,447.2201,303.4951,65.90546,56.61554
1950941,448.7409,302.2581,65.97787,56.50795
1950969,450.0021,301.4413,66.03761,56.43655
1950989,451.1711,300.951,66.09273,56.39358
1951012,452.7139,300.8547,66.16511,56.38512
1951038,453.6254,300.668,66.20768,56.36872
1951061,454.2977,300.5765,66.23899,56.36068
1951086,454.872,300.7393,66.26567,56.37498
1951109,455.128,300.863,66.27754,56.38585
1951132,455.3984,300.6866,66.29008,56.37036
1951156,456.0433,300.624,66.31992,56.36485
1951182,456.7059,300.5268,66.35049,56.35632
1951206,456.9308,300.4785,66.36086,56.35206
1951227,457.1306,300.4778,66.37006,56.352
1951254,457.2205,300.4842,66.37419,56.35257
1951276,457.1432,300.1822,66.37064,56.32599
1951300,456.766,299.7829,66.35326,56.29078
1951322,456.3824,299.4694,66.33557,56.2631
1951346,456.2281,299.4195,66.32845,56.25869
1951372,455.914,299.2344,66.31393,56.24233
1951394,455.5005,299.1252,66.29481,56.23266
1951420,455.1046,298.9811,66.27646,56.21991
1951445,454.5915,298.4925,66.25265,56.17659
1951476,454.1992,298.1585,66.23441,56.14692
1951493,453.6211,297.9037,66.20748,56.12425
1951515,453.061,297.7338,66.18134,56.10912
1951541,452.691,297.5916,66.16404,56.09646
1951563,452.3813,297.2634,66.14954,56.06718
1951587,451.8697,296.6005,66.12556,56.0079
1951615,451.5063,295.8174,66.10849,55.93766
1951639,451.2048,294.8472,66.09431,55.85027
1951660,450.9354,293.6569,66.08163,55.74252
1951685,450.9197,292.472,66.08089,55.63465
1951707,451.2505,291.373,66.09647,55.53409
1951730,451.5421,290.3404,66.11018,55.43912
1951754,451.8293,289.3665,66.12366,55.34913
1951778,452.1211,288.6004,66.13734,55.27805
1951805,452.4221,287.81,66.15145,55.20445
1951825,452.8297,287.3816,66.17052,55.16444
1951848,453.5471,286.9605,66.20403,55.12505
1951873,454.5918,286.3858,66.25266,55.07114
1951899,455.342,285.8427,66.28747,55.02007
1951922,456.2261,285.3571,66.32835,54.9743
1951946,456.9844,284.8198,66.36333,54.92353
1951970,457.4225,283.9355,66.38348,54.83969
1951995,457.5179,283.0941,66.38787,54.7596
1952017,457.5811,282.2047,66.39078,54.67459
1952041,457.2707,281.3247,66.3765,54.59013
1952064,456.2671,280.466,66.33025,54.50738
1952089,454.6406,279.8412,66.25493,54.44694
1952113,452.4295,279.3464,66.1518,54.39896
1952138,449.3751,278.8788,66.00794,54.35352
1952163,445.3588,278.6904,65.81629,54.33518
1952186,440.4536,278.7405,65.57828,54.34006
1952210,435.6015,279.0296,65.33848,54.36819
1952232,429.3234,280.0427,65.02158,54.46646
1952258,422.6486,282.0427,64.67619,54.65907
1952280,415.7258,284.894,64.30843,54.93055
1952310,407.8933,287.769,63.88016,55.20063
1952334,400.2414,290.7223,63.44878,55.47429
1952357,393.1857,293.3222,63.03913,55.71211
1952376,385.9486,295.8437,62.60664,55.94002
1952400,378.4935,298.3928,62.14755,56.16773
1952431,373.3814,299.8849,61.82448,56.29978
1952448,368.4503,301.5613,61.50627,56.44707
1952473,363.2978,303.4903,61.16666,56.61513
1952496,359.9076,305.2082,60.93915,56.76356
1952522,356.9604,306.7383,60.73869,56.89478
1952547,354.8841,307.5572,60.59595,56.96463
1952572,352.7669,307.8842,60.44908,56.99245
1952596,350.7452,308.1202,60.30758,57.0125
1952620,348.9886,308.3295,60.18364,57.03027
1952643,347.2076,308.7049,60.05701,57.06209
1952668,345.5991,309.0034,59.94181,57.08735
1952691,343.8274,309.1626,59.81398,57.10082
1952716,342.3305,309.202,59.70521,57.10415
1952738,340.735,309.257,59.5885,57.10879
1952763,339.048,309.2557,59.4642,57.10868
1952790,337.2917,309.1988,59.33382,57.10387
1952815,335.4275,309.0398,59.19432,57.09044
1952838,333.7142,308.9731,59.06511,57.08479
1952860,331.6212,308.8131,58.90591,57.07125
1952882,329.4942,308.4875,58.74263,57.04367
1952909,327.5372,308.3308,58.59102,57.03038
1952931,326.2436,308.2821,58.49009,57.02625
1952957,324.93,308.3136,58.38699,57.02892
1952979,323.6747,308.2679,58.2879,57.02505
1953006,322.6971,308.3756,58.21035,57.03418
1953027,321.7176,308.4071,58.1323,57.03685
1953055,321.3629,308.4213,58.10395,57.03806
1953077,320.972,308.4697,58.07266,57.04216
1953099,320.557,308.4309,58.03939,57.03887
1953124,320.1963,308.3737,58.0104,57.03402
1953147,319.9568,308.3699,57.99114,57.0337
1953172,319.4835,308.3777,57.953,57.03436
1953195,318.8567,308.3088,57.90238,57.02851
1953220,318.2421,308.3573,57.85259,57.03263
1953252,317.8293,308.4725,57.81908,57.0424
1953270,317.3494,308.4411,57.78004,57.03974
1953295,316.9675,308.6182,57.74891,57.05475
1953318,316.7407,308.7409,57.7304,57.06514
1953342,316.3146,308.8723,57.69558,57.07627
1953365,315.8356,308.6932,57.65634,57.0611
1953393,315.1058,308.4738,57.5964,57.04251
1953423,314.4644,308.3327,57.54356,57.03054
1953447,313.5935,307.9211,57.47156,56.99559
1953468,312.9417,307.439,57.41749,56.95456
1953487,312.0361,306.9262,57.3421,56.91083
1953512,310.6995,306.1106,57.23026,56.84106
1953535,309.4005,305.2573,57.12091,56.76779
1953560,307.7346,304.3994,56.97973,56.69382
1953582,306.1324,303.6689,56.84293,56.63062
1953609,304.4524,303.2148,56.6984,56.59122
1953634,302.7424,303.3028,56.55015,56.59886
1953654,300.8826,303.7542,56.38758,56.63801
1953680,298.9752,304.5475,56.21939,56.70661
1953705,297.1713,305.6232,56.05896,56.79924
1953728,295.5493,306.9789,55.91355,56.91533
1953753,294.1467,308.7833,55.78693,57.06873
1953778,292.7731,310.8417,55.66212,57.2422
1953798,291.3424,313.088,55.53128,57.42964
1953823,289.9967,315.8345,55.40741,57.65625
1953852,289.3608,317.4708,55.34861,57.78992
1953872,288.6173,319.1219,55.27962,57.92382
1953895,287.7675,320.4473,55.20049,58.03057
1953917,286.8687,321.6154,55.11644,58.12414
1953942,286.0417,322.5032,55.0388,58.19493
1953967,285.1068,322.8176,54.95066,58.21992
1953989,283.8369,322.9959,54.83032,58.23409
1954015,282.4325,323.1299,54.6964,58.24473
1954044,281.3535,322.9398,54.5929,58.22963
1954065,280.021,322.6723,54.46435,58.20838
1954087,278.6257,322.6845,54.32888,58.20935
1954113,277.3237,322.811,54.20165,58.2194
1954134,276.0507,322.902,54.0765,58.22663
1954159,274.686,323.1508,53.94149,58.24638
1954184,273.5272,323.4009,53.82615,58.26622
1954207,272.1864,323.9657,53.69191,58.31092
1954233,270.9229,324.6559,53.56461,58.3654
1954253,269.6803,325.4834,53.43867,58.4305
1954278,268.2865,326.2713,53.29651,58.49225
1954303,266.9631,327.0413,53.16066,58.55239
1954328,265.5396,327.9205,53.01355,58.62082
1954352,264.505,328.7024,52.906,58.68145
1954373,263.4078,329.3632,52.79137,58.73252
1954398,262.5081,329.9102,52.6969,58.77469
1954422,261.9024,330.0901,52.63308,58.78853
1954447,260.9294,330.1228,52.53017,58.79105
1954471,259.9581,330.0052,52.42694,58.782
1954496,259.2192,329.3185,52.34809,58.72907
1954518,258.6374,327.7169,52.28582,58.605
1954544,258.3562,325.0801,52.25565,58.3988
1954570,258.3548,322.1342,52.2555,58.16553
1954591,258.337,319.3387,52.25359,57.94132
1954614,258.7602,315.8643,52.29898,57.65869
1954638,259.4791,312.212,52.37586,57.35677
1954661,260.2051,308.1346,52.45324,57.01373
1954686,260.6814,304.5147,52.50386,56.70378
1954711,260.8302,301.1195,52.51965,56.40836
1954735,260.8594,298.23,52.52275,56.15327
1954758,260.678,295.3017,52.50349,55.89125
1954782,260.5495,292.7378,52.48985,55.65891
1954808,260.5186,290.3044,52.48657,55.4358
1954834,260.5826,288.1611,52.49336,55.23718
1954854,260.779,286.465,52.51421,55.07858
1954880,261.2009,285.0384,52.55893,54.9442
1954902,261.6682,283.7639,52.60835,54.82338
1954929,262.1482,282.7417,52.65901,54.72596
1954951,262.4796,281.7657,52.6939,54.6325
1954976,262.7378,280.6641,52.72106,54.5265
1955000,263.0467,279.7298,52.7535,54.43615
1955025,263.0838,278.8752,52.7574,54.35316
1955049,263.2169,278.2476,52.77135,54.29201
1955072,263.4041,277.7649,52.79098,54.24485
1955098,263.6318,277.4865,52.81481,54.2176
1955120,263.9794,277.2794,52.85116,54.19731
1955147,264.2945,277.0438,52.88406,54.1742
1955171,264.5409,277.1185,52.90974,54.18153
1955196,264.774,277.1965,52.93401,54.18918
1955220,264.9045,277.2112,52.9476,54.19062
1955246,265.0367,276.9747,52.96134,54.16742
1955272,265.2727,276.756,52.98586,54.14593
1955297,265.3331,276.7381,52.99213,54.14417
1955322,265.3035,276.75,52.98906,54.14534
1955340,265.4231,276.493,53.00146,54.12007
1955362,265.7876,276.165,53.03925,54.08777
1955389,266.2306,276.0145,53.08508,54.07293
1955410,266.8845,275.8925,53.15255,54.06089
1955438,267.3299,275.8557,53.19839,54.05725
1955459,267.6304,275.7615,53.22927,54.04796
1955486,267.7377,275.757,53.24028,54.04751
1955507,267.6283,275.6249,53.22905,54.03447
1955536,267.4402,275.33,53.20973,54.00531
1955555,267.2556,275.1891,53.19075,53.99136
1955579,266.6323,275.2861,53.12656,54.00097
1955604,266.006,275.3933,53.06186,54.01157
1955628,265.2559,275.5446,52.98411,54.02654
1955654,264.2363,275.799,52.87799,54.05167
1955676,262.8022,276.0522,52.72783,54.07664
1955702,261.1987,276.4533,52.5587,54.11617
1955725,259.6633,276.9559,52.39552,54.16557
1955749,257.883,277.6761,52.20479,54.23616
1955771,256.2177,278.3801,52.02489,54.30494
1955796,254.563,279.2321,51.84469,54.38787
1955820,253.4126,280.0612,51.71856,54.46825
1955846,252.6617,280.8774,51.63583,54.54707
1955870,252.3523,281.3102,51.60167,54.58874
1955894,252.1219,281.7195,51.57619,54.62807
1955918,252.029,282.2807,51.56591,54.68187
1955942,252.0683,282.7482,51.57026,54.72659
1955968,252.0216,283.1559,51.56509,54.7655
1955992,251.9565,283.6096,51.55789,54.80872
1956015,251.9375,284.053,51.55578,54.85085
1956041,251.9404,284.335,51.5561,54.87761
1956062,251.9732,284.5818,51.55973,54.90101
1956087,251.9512,284.924,51.55729,54.93339
1956111,251.6639,285.1899,51.52546,54.95852
1956137,251.5721,285.3304,51.51527,54.97178
1956159,251.6948,285.4339,51.52888,54.98155
1956183,251.9123,285.3672,51.55298,54.97525
1956207,252.2953,285.3239,51.59538,54.97116
1956233,253.0038,285.2756,51.67356,54.96661
1956255,254.1281,284.9268,51.79709,54.93366
1956281,255.347,284.4773,51.93025,54.8911
1956310,256.4176,284.171,52.04657,54.86206
1956327,257.9776,283.6481,52.21497,54.81237
1956352,259.6007,283.0745,52.38884,54.75773
1956375,261.1919,282.5736,52.55798,54.7099
1956400,263.2932,281.8074,52.77935,54.6365
1956425,265.3405,281.3176,52.9929,54.58944
1956452,267.6639,280.9258,53.23271,54.55173
1956473,269.5894,280.924,53.42942,54.55156
1956497,272.263,281.3851,53.6996,54.59594
1956522,275.3342,281.8009,54.00572,54.63588
1956549,278.7173,282.0978,54.33781,54.66436
1956571,282.7783,282.0905,54.72946,54.66365
1956596,286.7897,281.8885,55.10904,54.64428
1956618,292.0017,281.8207,55.59168,54.63778
1956642,296.3041,282.0517,55.98135,54.65993
1956667,301.7943,282.4555,56.46745,54.6986
1956691,307.3018,282.3711,56.94288,54.69053
1956716,312.6523,281.7183,57.39343,54.62795
1956740,317.7434,281.3481,57.8121,54.59238
1956765,322.777,281.2751,58.2167,54.58536
1956789,327.9449,281.3984,58.62272,54.59722
1956812,332.6711,281.8433,58.98595,54.63995
1956837,338.2566,282.5375,59.40557,54.70645
1956861,343.1675,282.862,59.76612,54.73745
1956886,348.5558,283.5361,60.15296,54.80172
1956910,354.0733,284.7982,60.53986,54.92149
1956934,359.8665,286.8062,60.93637,55.11058
1956957,365.4561,289.3091,61.30981,55.34381
1956979,371.1878,291.8622,61.68373,55.57892
1957005,376.8863,294.7971,62.04671,55.84575
1957032,382.0092,297.8373,62.3658,56.11834
1957054,387.2173,300.8817,62.68338,56.3875
1957076,392.5482,303.6526,63.00154,56.6292
1957101,397.7344,306.3029,63.30455,56.85754
1957125,402.0249,308.3909,63.5505,57.03548
1957149,406.7704,310.5061,63.81768,57.21402
1957174,411.1326,312.3294,64.05888,57.36655
1957196,415.8293,314.4514,64.314,57.54248
1957222,420.329,317.014,64.55407,57.7527
1957245,425.0185,319.5141,64.79984,57.95547
1957271,430.4424,322.0728,65.07861,58.16064
1957292,435.0591,324.4073,65.31139,58.34579
1957317,439.7715,326.6232,65.54483,58.51976
1957341,443.5698,328.345,65.72999,58.65376
1957366,447.0294,329.9591,65.89635,58.77845
1957390,450.1052,332.2911,66.04248,58.95703
