Time Stamp(ms),Intersection,,Angle,
,x,y,x,y
368392.4,318.698,247.268,57.88954,51.03272
368411,318.7095,246.7688,57.89047,50.97609
368427.1,318.7073,246.4389,57.89029,50.93859
368443.8,318.7879,246.2778,57.89681,50.92025
368460.3,318.7627,246.2108,57.89477,50.91263
368476.9,318.7061,246.3294,57.89019,50.92613
368492.8,318.7196,246.366,57.89128,50.9303
368510.5,318.6765,246.2644,57.88779,50.91873
368525.4,318.5954,245.9668,57.88123,50.88483
368543,318.3572,245.6751,57.86193,50.85154
368560.3,318.0901,245.6743,57.84027,50.85144
368578.2,317.7218,245.6653,57.81034,50.85042
368594.3,317.4792,245.3399,57.79061,50.81324
368611.3,317.2074,244.9609,57.76847,50.76985
368628.5,317.0443,244.9222,57.75518,50.76541
368643,316.7652,244.945,57.7324,50.76802
368665.7,316.4427,245.1019,57.70605,50.786
368678.5,316.2441,244.839,57.68981,50.75587
368693.6,316.0059,244.571,57.6703,50.72512
368711.8,315.8,244.4737,57.65342,50.71396
368726.8,315.5521,244.5978,57.63308,50.7282
368745.7,315.3116,244.8948,57.61333,50.76228
368759.6,315.2026,245.1069,57.60436,50.78657
368776.9,315.0025,245.2456,57.5879,50.80244
368796,314.8072,245.5047,57.57182,50.83207
368812,314.7237,245.6962,57.56494,50.85394
368828.8,314.7505,245.9973,57.56715,50.8883
368845,314.8626,246.2128,57.57639,50.91286
368862.9,314.9678,246.3704,57.58504,50.93079
368879.2,314.989,246.5074,57.58679,50.94638
368894.3,314.9638,246.6512,57.58472,50.96273
368912.3,314.9948,246.7957,57.58726,50.97915
368929,314.9676,247.1276,57.58503,51.01681
368947.6,315.0091,247.2921,57.58844,51.03545
368962.6,315.0968,247.4367,57.59566,51.05183
368980.4,315.3583,247.7255,57.61716,51.0845
368997.5,315.5961,247.9131,57.63669,51.10569
369011.3,315.9318,248.0887,57.66422,51.12551
369029.3,316.6623,248.3018,57.724,51.14955
369048.1,317.5252,248.6439,57.79436,51.18808
369063.3,318.7488,248.9762,57.89365,51.22544
369079.1,319.895,249.3868,57.98616,51.27154
369094.6,321.5799,249.8025,58.1213,51.3181
369112.8,323.3934,250.2135,58.26562,51.36405
369130.4,325.4303,250.6494,58.42632,51.41267
369146.2,328.1983,251.0387,58.64238,51.45602
369161.9,332.5298,251.3251,58.9752,51.48786
369179.9,336.6771,251.716,59.28795,51.53123
369195.2,341.59,252.2858,59.65114,51.59431
369214.1,345.4398,252.588,59.93036,51.6277
369229.6,349.2292,252.8977,60.20068,51.66187
369245.8,353.5339,253.0822,60.50244,51.68219
369263.3,357.6191,253.0675,60.78371,51.68058
369281.3,361.4495,253.1488,61.04303,51.68953
369297.6,366.9419,253.1565,61.40761,51.69038
369317.9,371.5988,253.4109,61.7102,51.71836
369332.3,375.612,253.7154,61.96629,51.75182
369347.9,379.2763,253.9543,62.19642,51.77803
369362.7,383.0783,254.2192,62.43155,51.80706
369378.4,387.481,254.4306,62.69928,51.83022
369398.1,391.041,254.5389,62.91228,51.84206
369412.9,394.018,254.5941,63.08806,51.8481
369429.3,397.0383,254.5085,63.26424,51.83874
369445.5,399.5024,254.5048,63.40641,51.83833
369461.7,401.9571,254.6726,63.54664,51.85667
369479.1,404.2787,254.9577,63.67802,51.88781
369495.2,406.5778,255.4,63.80693,51.93602
369512.8,408.9632,256.0438,63.93945,52.00603
369538.8,410.8794,256.3384,64.045,52.03798
369551.9,412.5716,256.6525,64.13754,52.07201
369564,414.5573,256.8812,64.24537,52.09675
369580.5,416.0024,257.0958,64.32332,52.11993
369597.8,417.2898,257.402,64.39238,52.15298
369613.1,418.6098,257.8135,64.46284,52.19731
369632.2,419.3724,258.2726,64.50338,52.24667
369650.2,420.1643,258.7019,64.54535,52.29273
369664.8,420.7704,258.9784,64.57738,52.32234
369680.8,421.2171,259.0598,64.60095,52.33105
369696,421.9857,259.085,64.6414,52.33374
369720,422.0794,259.1271,64.64632,52.33825
369729.3,422.1191,258.9409,64.64841,52.31833
369746.9,422.4525,258.7874,64.66591,52.30189
369768.1,422.5901,258.6784,64.67313,52.29021
369785.6,422.5954,258.5337,64.6734,52.27469
369798.8,422.3977,258.3375,64.66303,52.25364
369814.4,422.1183,258.3118,64.64837,52.25089
369832.3,421.6316,258.4863,64.62278,52.26961
369848.3,420.6695,258.7798,64.57206,52.30107
369866,419.4578,259.0589,64.50791,52.33095
369882.9,417.9114,259.4811,64.42561,52.37608
369898.4,415.6558,259.8719,64.30466,52.41776
369912.8,413.1141,260.419,64.16709,52.47599
369930.8,409.3502,261.3648,63.96083,52.57628
369950,405.5975,262.2924,63.75211,52.6742
369965.2,400.4323,263.7059,63.45969,52.82257
369981.1,395.3786,265.1204,63.16769,52.97004
369997.5,390.0818,266.6941,62.8552,53.13293
370017.4,383.5192,268.7041,62.45858,53.3392
370033.9,377.16,270.5923,62.06393,53.53117
370047.9,371.1575,272.3903,61.68178,53.71238
370067.8,364.237,274.4409,61.22911,53.91714
370083.7,357.8602,276.288,60.80016,54.09988
370100.8,351.0296,278.1513,60.32756,54.28262
370116.9,344.512,279.7201,59.86349,54.43521
370131.1,338.0705,281.3458,59.39176,54.59216
370147.7,330.8055,282.8924,58.84348,54.74036
370167.9,324.1234,284.3237,58.32338,54.87654
370185.4,317.3691,285.5587,57.78164,54.99332
370199.5,311.265,286.7775,57.27766,55.10789
370215.5,305.2856,287.9984,56.77022,55.22202
370232.8,299.1955,289.3285,56.23888,55.34561
370250.3,293.6725,290.4681,55.74393,55.45089
370267.9,288.307,291.417,55.25077,55.53812
370283.7,283.0861,292.0844,54.75884,55.59924
370299.2,277.6558,292.8297,54.23418,55.66728
370317.1,271.8028,293.4274,53.65334,55.72167
370333.6,266.5819,294.0576,53.12136,55.77886
370349.4,260.5594,294.7505,52.49091,55.84153
370366.8,254.1047,295.2979,51.79452,55.89091
370381.6,248.2891,295.7921,51.14812,55.93539
370398,242.2924,296.4094,50.46206,55.99079
370415.5,236.7609,296.8578,49.81108,56.03094
370432.7,231.7836,297.3646,49.20996,56.07621
370449.3,225.0222,298.2911,48.36926,56.1587
370469.3,221.1942,298.7928,47.88065,56.20323
370481.6,216.0708,299.8156,47.21196,56.29367
370499.3,211.1292,300.8175,46.55061,56.38186
370515.6,205.6579,301.7912,45.79908,56.46717
370532.8,201.1138,302.6978,45.1591,56.54627
370549.9,196.6451,303.5227,44.5154,56.61795
370567.3,192.6006,303.8487,43.92026,56.6462
370583.7,188.24,304.168,43.26501,56.67382
370600.9,183.0654,304.3618,42.46872,56.69058
370623.9,180.11,304.3951,42.00463,56.69345
370633.7,177.0233,304.3646,41.51258,56.69081
370650.8,174.2744,304.2894,41.06798,56.68432
370667.2,171.7746,304.0525,40.65839,56.66383
370685.1,169.3376,303.8229,40.25418,56.64396
370699.7,167.5577,303.4252,39.95589,56.60949
370715.9,165.7247,302.7588,39.64594,56.55157
370734.1,163.8999,302.0781,39.33461,56.49224
370751.6,162.556,301.3753,39.10352,56.43078
370768,162.1763,300.3956,39.03796,56.34478
370786.4,161.7635,299.2076,38.96653,56.23995
370801.4,161.3175,297.8996,38.88921,56.12389
370818.7,161.3053,296.3038,38.8871,55.98133
370834.4,161.0799,294.4738,38.84796,55.81653
370853.4,160.984,292.8465,38.83128,55.66881
370869.9,161.2741,291.1168,38.88169,55.51057
370884.9,161.5573,288.9561,38.9308,55.31108
370901.5,161.8268,286.3921,38.9775,55.07174
370921.1,162.0587,284.7946,39.01763,54.92115
370934.4,162.7534,282.5764,39.13757,54.71017
370950.1,163.4504,280.1642,39.25748,54.47821
370970.1,164.5577,277.3572,39.44716,54.20494
370987.4,165.5453,274.9261,39.61547,53.96531
371004.1,166.7515,272.3286,39.81992,53.70618
371020.4,168.328,269.6711,40.0853,53.43773
371036.2,169.8949,267.1703,40.34705,53.18198
371051.2,171.5139,264.7512,40.61538,52.93164
371072.8,173.3048,261.8732,40.90971,52.63
371085.7,174.6671,259.2879,41.13187,52.35544
371101.1,176.3773,256.274,41.40864,52.03099
371118.3,178.1575,253.3455,41.69425,51.71118
371134.6,180.306,250.2562,42.0356,51.36881
371151.8,182.5273,247.353,42.38472,51.04234
371167.6,185.2427,244.0199,42.80627,50.66178
371185,187.4994,240.7447,43.15229,50.2817
371201.4,189.7002,236.8821,43.48603,49.82553
371218.3,191.696,233.5091,43.7855,49.42002
371233.3,194.1189,229.5888,44.14509,48.94014
371252.6,195.8378,226.7814,44.39757,48.59072
371272.7,197.7389,223.429,44.67428,48.16703
371286,199.4853,220.3963,44.92618,47.77763
371302,201.0632,217.5201,45.15188,47.40285
371319.3,202.6502,214.4584,45.3771,46.99796
371335.3,204.5743,210.8445,45.64778,46.512
371354.3,206.181,208.1193,45.87181,46.13972
371370.3,207.9158,205.5303,46.11171,45.78131
371387,209.5363,203.0883,46.33392,45.43896
371403.3,211.0352,200.5826,46.53786,45.08334
371420.3,212.1605,198.2772,46.68998,44.75216
371436.1,213.0963,195.945,46.81583,44.41324
371454.8,213.9429,193.5916,46.92918,44.0672
371471,214.6025,191.9369,47.01715,43.82145
371486,215.2047,190.3483,47.09722,43.5836
371502.6,215.8699,188.9673,47.18538,43.3753
371519.4,216.4165,187.8424,47.25762,43.20455
371535.1,216.8937,187.1452,47.32052,43.09824
371553.1,217.4248,186.3399,47.39035,42.97499
371570.1,217.8887,185.809,47.45119,42.89347
371586.2,218.3535,184.8887,47.512,42.75164
371608.9,218.6759,184.0135,47.5541,42.61616
371620.2,218.9026,183.2132,47.58367,42.49173
371636.1,219.1903,182.4251,47.62114,42.36874
371652.1,219.4295,181.6448,47.65226,42.24648
371670.1,219.5713,181.1062,47.67068,42.16182
371686.3,219.7608,180.5201,47.69529,42.06943
371702.2,220.0779,180.0541,47.73641,41.99578
371719.3,220.4475,179.5266,47.78426,41.9122
371736.2,220.8325,179.0251,47.834,41.83254
371753.1,221.2109,178.6655,47.88281,41.7753
371770.7,221.6882,178.3736,47.94423,41.72875
371791.4,222.0762,178.1937,47.99406,41.70004
371806.4,222.6209,178.1595,48.06385,41.69456
371823.3,223.0023,177.9573,48.11261,41.66225
371837,223.4248,177.6565,48.16651,41.61413
371852,224.1312,177.3517,48.25637,41.56528
371871.6,224.7026,177.0912,48.32883,41.52348
371886.7,225.5247,177.1651,48.43272,41.53535
371903.7,226.5687,177.1989,48.56404,41.54076
371924.6,228.1045,177.3457,48.75601,41.56432
371937.6,229.9539,177.7475,48.98522,41.62869
371953.9,232.4359,178.2044,49.28958,41.70174
371974.4,236.0719,179.293,49.72874,41.87512
371987.5,240.0809,180.2993,50.20392,42.03456
372011,244.5109,181.4922,50.71823,42.22252
372020,250.1147,182.5634,51.35301,42.39035
372036.3,255.5285,183.2622,51.95001,42.49937
372054.1,261.2017,183.9737,52.55902,42.60997
372075.5,266.0917,184.8027,53.07073,42.73835
372092.1,270.9352,186.0106,53.56586,42.92445
372107.3,275.7094,187.4456,54.04282,43.14409
372122.1,280.0539,188.8246,54.46754,43.35369
372141.3,284.2229,189.9811,54.86699,43.52835
372155.6,287.8909,190.9509,55.212,43.67404
372171.3,291.9923,192.2914,55.59082,43.87428
372189.7,295.4175,193.3303,55.90168,44.02853
372204.9,298.7984,194.7785,56.20372,44.24223
372221.1,302.0498,196.3095,56.48977,44.46647
372238.7,304.7692,197.7175,56.72574,44.67118
372255.2,307.6606,199.144,56.97343,44.87712
372271.8,310.7645,200.7935,57.23572,45.11343
372289.4,313.5665,202.4642,57.46932,45.3508
372306,316.166,204.3054,57.68341,45.61011
372321.7,318.6039,206.5882,57.88191,45.92832
372339,320.9185,208.3703,58.06838,46.17422
372355,323.4104,210.3852,58.26697,46.44961
372371.8,326.1874,212.4419,58.48568,46.72789
372393.8,328.5347,214.3058,58.66846,46.97762
372410.8,330.881,216.1433,58.84927,47.22155
372422.5,333.0686,218.2205,59.01616,47.49461
372443.4,335.0839,220.1146,59.16848,47.74117
372457.4,337.1128,222.2567,59.32048,48.01721
372476.7,339.2176,224.613,59.47673,48.31748
372495.7,340.9334,226.4943,59.60306,48.55471
372509.4,342.6265,228.4545,59.72678,48.79955
372528.2,344.54,230.8322,59.86552,49.09335
372552.3,346.8812,233.6363,60.0337,49.43544
372572.1,347.8886,234.7643,60.10555,49.57171
372583,348.7708,235.725,60.16821,49.68719
372592.9,349.8708,236.9517,60.24601,49.83383
372607,351.1763,238.4587,60.33786,50.01278
372626.8,352.3607,239.7074,60.42075,50.16006
372642.4,353.4211,240.976,60.4946,50.30874
372660.5,354.2917,242.2735,60.55498,50.45987
372676.4,354.8567,243.6862,60.59405,50.62333
372693.5,355.3005,245.0648,60.62468,50.78175
372709,355.8929,246.6361,60.66546,50.96102
372725.3,356.5145,248.1738,60.70814,51.13512
372741.5,357.1615,249.9085,60.75245,51.32996
372759.2,357.8278,251.6071,60.79795,51.51915
372775.4,358.5809,253.5391,60.84922,51.73246
372792,359.5677,255.6974,60.91616,51.96838
372808.3,360.6483,258.0032,60.98914,52.21772
372825.1,361.8819,260.5065,61.07204,52.48529
372842.9,363.2458,263.0246,61.1632,52.75118
372858.3,364.688,265.6991,61.25902,53.03008
372876.3,366.2043,268.3027,61.35913,53.29817
372893.6,367.7256,270.7774,61.45895,53.5499
372910.2,369.1649,273.0658,61.55279,53.78005
372926.6,370.4831,275.4981,61.63824,54.02193
372943.3,371.6468,277.9177,61.71329,54.25979
372961.5,372.6963,280.429,61.78066,54.5038
372977.8,373.6989,282.9516,61.84475,54.74601
372996.3,374.6456,285.2081,61.90501,54.96023
373011.3,375.3546,287.1746,61.94999,55.14508
373027.7,376.0591,289.1258,61.99456,55.32682
373044.6,376.6205,290.9318,62.02998,55.49356
373060.3,377.0693,292.5171,62.05824,55.63878
373076.7,377.4328,293.9432,62.08108,55.76849
373094.4,377.6732,295.1512,62.09616,55.87769
373110.9,377.7514,296.168,62.10107,55.96914
373127.6,377.964,297.2346,62.1144,56.0646
373143,378.0918,298.2176,62.12241,56.15217
373160.7,378.0092,298.8834,62.11724,56.21125
373178.3,377.9227,299.3983,62.11182,56.25682
373194.6,377.6341,299.5885,62.09372,56.27363
373210.6,377.4627,299.7317,62.08295,56.28627
373228.4,377.1108,299.7668,62.06084,56.28937
373246.4,376.7769,299.8709,62.03983,56.29855
373261.1,376.4042,299.9595,62.01634,56.30636
373279.3,376.0083,299.9856,61.99134,56.30866
373295.9,375.7296,299.983,61.97373,56.30844
373311.9,375.6026,299.9984,61.96569,56.30979
373328.6,375.5388,300.0933,61.96166,56.31816
373345.9,375.5686,300.1874,61.96354,56.32645
373361.8,375.584,300.3645,61.96452,56.34203
373378.2,375.9818,300.5052,61.98967,56.35442
373393.9,376.4611,300.8276,62.01992,56.38275
373410.7,377.3929,301.2267,62.07858,56.41776
373429,378.3013,301.7294,62.13552,56.46177
373444.1,379.3968,302.3788,62.20393,56.51847
373460.7,380.5456,303.0923,62.27533,56.58058
373479.5,381.7911,303.6532,62.35235,56.62925
373493.7,383.3559,304.355,62.44857,56.68999
373511.6,384.6024,304.9442,62.52478,56.74082
373529,385.7803,305.4893,62.59643,56.78774
373545,386.9593,305.9106,62.6678,56.82391
373561.3,388.2225,306.2084,62.7439,56.84944
373583.6,389.3092,306.4003,62.80905,56.86587
373595.6,390.4072,306.4606,62.87459,56.87103
373610.3,391.5922,306.4131,62.94499,56.86697
373628.8,392.7755,306.0778,63.01495,56.83825
373648,393.9244,305.5991,63.08257,56.79717
373665.2,394.9387,304.9106,63.14199,56.73793
373677.9,395.813,304.1372,63.19303,56.67117
373696.6,396.7174,303.2164,63.24563,56.59136
373712.1,397.2428,302.1773,63.2761,56.5009
373728.1,397.4535,301.3385,63.2883,56.42755
373745,397.3184,300.2984,63.28048,56.33622
373762.1,396.3115,299.4996,63.22204,56.26577
373778.9,395.1991,298.7253,63.15722,56.19724
373794.9,393.1405,297.9058,63.03646,56.12444
373814.4,390.9053,297.305,62.90422,56.07089
373829.5,387.3438,296.6049,62.69101,56.0083
373847,383.705,295.9496,62.46996,55.94954
373867.3,379.5141,295.4263,62.21124,55.90248
373881.2,374.3727,295.1309,61.88767,55.87586
373897.7,368.8701,294.7754,61.53362,55.84379
373915.8,361.8204,294.1407,61.06792,55.78639
373933.1,356.6231,293.6139,60.71559,55.73862
373948.5,351.2488,293.0309,60.34295,55.6856
373966.5,345.4219,292.617,59.92907,55.64789
373981,338.9523,292.3609,59.45712,55.62452
373998.3,332.4177,292.4314,58.96667,55.63095
374016.5,326.1992,292.5183,58.48661,55.63889
374031.6,319.9266,292.5691,57.98871,55.64352
374047.9,312.9896,292.5697,57.42147,55.64357
374064.8,305.7159,292.3354,56.8072,55.62219
374081.2,298.4034,292.0135,56.16868,55.59276
374097.8,290.3351,291.7052,55.43863,55.56454
374114.7,282.4503,291.3602,54.6981,55.53291
374133.1,275.8637,290.9391,54.05805,55.49424
374149.2,269.2305,290.5738,53.39289,55.46062
374166,262.9429,290.2205,52.7426,55.42806
374182.3,255.695,289.7712,51.96812,55.38658
374201.8,249.7893,289.2964,51.31663,55.34263
374217.4,244.419,288.9654,50.70767,55.31195
374232.9,239.2732,288.6957,50.10894,55.2869
374250.8,234.0319,288.5191,49.48331,55.27049
374266.7,229.5097,288.4834,48.93036,55.26717
374283,224.6042,288.5367,48.31637,55.27213
374298.7,219.9273,288.6881,47.71689,55.28621
374315.7,215.2245,288.917,47.09985,55.30745
374332.6,210.4426,289.2559,46.45742,55.33888
374350.3,206.6394,289.6556,45.93541,55.37589
374366.2,203.3724,290.4187,45.47901,55.44634
374381.3,199.6342,291.0255,44.94756,55.50218
374399.2,196.4301,291.6617,44.48405,55.56056
374415.9,193.1858,292.4448,44.00711,55.63217
374432.5,190.6794,293.0125,43.63334,55.68393
374449.2,188.6641,293.4594,43.32936,55.72458
374465.4,186.5894,293.8284,43.01323,55.75808
374481.5,184.6892,294.062,42.7208,55.77926
374498,183.2221,294.1092,42.49313,55.78353
374514.9,181.72,294.2288,42.25828,55.79436
374531.8,180.4961,294.1987,42.06564,55.79164
374549.9,179.1243,294.2808,41.84831,55.79907
374567.9,178.1239,294.2522,41.68888,55.79649
374582.4,177.7774,294.1194,41.63348,55.78445
374598.6,177.7496,293.9232,41.62903,55.76668
374614.5,177.9065,293.4798,41.65413,55.72644
374637.9,178.0221,293.1588,41.67261,55.69725
374651,178.3082,292.7947,41.71831,55.6641
374665.8,178.8463,292.2845,41.80408,55.61753
374681.3,180.1655,291.9309,42.0134,55.58521
374700.5,182.3088,291.6586,42.35055,55.56028
374717.8,184.509,291.2442,42.69293,55.52227
374734.7,187.3003,290.7094,43.12192,55.4731
374752,190.6834,290.0166,43.63393,55.40925
374769,194.3023,289.4797,44.17213,55.35961
374785.3,198.9095,288.9212,44.84337,55.30784
374801.3,202.9553,288.2735,45.4202,55.24764
374818.2,207.062,287.3893,45.9939,55.16517
374835.4,210.9949,286.2972,46.5324,55.06282
374852.2,214.3631,285.3077,46.98525,54.96964
374867.9,218.0885,284.1035,47.47735,54.85564
374884.4,221.9291,282.7592,47.97519,54.72763
374903.1,225.8962,281.4253,48.47953,54.5998
374919.3,229.4223,280.204,48.91955,54.48206
374933.2,233.3259,278.4594,49.39781,54.31268
374951,236.6515,276.7347,49.79802,54.14384
374968.4,239.5772,274.8091,50.14474,53.95369
374984.6,242.5626,272.8629,50.49342,53.75975
375002.1,245.1295,271.0101,50.78916,53.57342
375017.5,247.2367,268.9589,51.02917,53.36521
375034,249.1613,266.8524,51.24623,53.14925
375051,250.7598,264.277,51.42497,52.88223
375067,251.7482,260.9286,51.53481,52.53008
375083.2,252.9284,256.1465,51.66525,52.01717
375106.3,253.6655,254.2318,51.74635,51.80845
375116.1,254.1231,251.0443,51.79654,51.45664
375135.4,254.2832,248.0744,51.81408,51.1239
375152.6,254.4494,245.3509,51.83227,50.8145
375169,254.202,243.26,51.80518,50.57413
375183.1,253.6574,240.8646,51.74545,50.29573
375200.2,253.2104,238.5373,51.6963,50.02208
375217.3,252.7754,236.4852,51.64838,49.77817
375233.8,252.3595,234.5757,51.60247,49.54898
375254,252.1423,232.8383,51.57845,49.33857
375270.2,251.9098,230.7466,51.55271,49.08284
375288.4,251.7096,229.0567,51.53053,48.87428
375300,251.5107,227.4377,51.50847,48.67284
375318.5,251.3564,226.2763,51.49133,48.52734
375333.9,251.0502,224.8433,51.4573,48.34664
375351.4,250.5152,223.6953,51.39771,48.20095
375368.3,249.916,222.4631,51.3308,48.04364
375383.9,249.3483,221.4587,51.26722,47.91471
375400.3,248.7609,220.5743,51.20125,47.80065
375416.6,248.1322,219.81,51.13042,47.70168
375436.8,247.5805,219.2337,51.0681,47.62679
375455.3,247.024,218.5955,51.00505,47.54361
375477.8,246.7227,218.0791,50.97086,47.47611
375492.9,246.3622,217.4962,50.92986,47.39972
375505.7,245.9887,216.9758,50.88732,47.33132
375521.4,245.6205,216.4345,50.8453,47.26
375537.3,245.2741,215.9435,50.80571,47.19513
375556.7,244.9816,215.6158,50.77222,47.15174
375574.7,244.7306,215.3208,50.74345,47.11263
375590.4,244.5167,214.804,50.71889,47.04398
375605.2,244.4513,214.4849,50.71138,47.00149
375622.3,244.4415,214.229,50.71025,46.96737
375638.9,244.4971,213.8604,50.71664,46.91815
375656,244.4965,213.5353,50.71658,46.87466
375672,244.5408,213.2085,50.72166,46.83088
375688.9,244.6323,212.8004,50.73217,46.7761
375712.3,244.8049,212.4621,50.75196,46.7306
375722.8,245.0116,212.213,50.77565,46.69706
375738.3,245.3121,212.0584,50.81005,46.67621
375754.3,245.8716,211.8737,50.87397,46.65129
375773.3,246.3328,211.6203,50.92652,46.61707
375790.8,246.9652,211.4812,50.99838,46.59826
375807.9,247.7517,211.4209,51.08746,46.5901
375828.8,248.666,211.418,51.19057,46.5897
375840.4,249.6761,211.5116,51.30396,46.60237
375854.4,251.1406,211.6013,51.46736,46.6145
375872.1,252.8353,211.8927,51.65499,46.65385
375889,255.0643,212.218,51.89944,46.69773
375905.8,257.1312,212.5451,52.12375,46.74177
