Time Stamp(ms),Intersection,,Angle,
,x,y,x,y
481680.9,312.731,242.2273,57.39998,50.45451
481705.3,312.2393,242.2088,57.35904,50.45236
481716.7,311.9828,242.2116,57.33765,50.45269
481730,311.5255,242.4517,57.29946,50.48056
481748,311.0677,242.6936,57.26114,50.50859
481763.1,310.6223,243.0626,57.22377,50.55131
481780.2,310.1401,243.7355,57.18325,50.62902
481798.8,309.8099,244.0016,57.15545,50.65966
481813.3,309.5198,243.8155,57.13098,50.63823
481830.3,309.4081,243.2751,57.12155,50.57588
481846.8,309.3233,242.9002,57.1144,50.53253
481864.8,309.4354,242.8305,57.12386,50.52446
481880.7,309.4825,242.8897,57.12784,50.53131
481898.1,309.5963,242.6817,57.13743,50.50722
481913.2,309.9056,241.4916,57.16351,50.36892
481931.2,310.1557,240.567,57.18456,50.26091
481948.3,310.4272,239.9262,57.20739,50.18576
481964.3,310.6111,239.9323,57.22284,50.18647
481981.5,310.8133,239.8376,57.23981,50.17535
481998.7,311.0437,239.6092,57.25912,50.1485
482013.7,311.2118,239.2453,57.27321,50.10565
482030.7,311.2931,239.2049,57.28001,50.10089
482047.6,311.4437,239.3045,57.29261,50.11263
482064.8,311.6283,239.4234,57.30805,50.12663
482080,311.7869,239.4125,57.3213,50.12535
482097.1,311.8042,239.3357,57.32275,50.11631
482112.9,311.8312,239.1215,57.325,50.09106
482131.6,311.8671,238.6126,57.328,50.03098
482152.1,311.9185,238.119,57.33229,49.97255
482167.5,311.9296,237.7513,57.33321,49.92894
482181.4,311.8816,237.6743,57.32921,49.9198
482198,311.7813,237.7122,57.32084,49.9243
482213.8,311.6345,237.8278,57.30857,49.93803
482235.8,311.588,237.8006,57.30468,49.9348
482248.8,311.6457,237.6754,57.3095,49.91994
482263.3,311.8497,237.5098,57.32654,49.90025
482280.8,312.0493,237.465,57.3432,49.89493
482300.9,312.2258,237.5136,57.35791,49.90071
482316.4,312.5606,237.7056,57.3858,49.92352
482332.7,312.9484,237.7794,57.41805,49.93228
482348.9,313.258,238.0135,57.44375,49.96005
482365.1,313.7169,238.2235,57.48178,49.98494
482381.6,314.2905,238.1535,57.52921,49.97665
482398.8,315.2685,237.7353,57.60978,49.92705
482414.3,317.4973,237.1549,57.79208,49.85804
482432.3,320.1591,236.5001,58.00742,49.77994
482449.5,324.0351,235.6098,58.31641,49.67337
482466.7,327.6022,235.0275,58.59608,49.6034
482482.7,332.0588,234.192,58.93932,49.50267
482498.4,336.6975,233.3588,59.28948,49.40179
482515.7,341.7437,232.3882,59.66238,49.28376
482532.5,347.1299,231.2659,60.05146,49.14658
482550.4,351.4059,230.2059,60.35396,49.0163
482567.2,355.8291,228.3478,60.66107,48.78628
482581.4,359.948,226.5259,60.94188,48.55868
482599,363.9649,224.6069,61.21105,48.3167
482614.9,368.7962,222.2721,61.5288,48.01918
482634.3,372.2448,220.5169,61.75171,47.79324
482648.8,376.3874,218.6492,62.01528,47.55062
482666.4,380.0396,217.0032,62.24392,47.33493
482682.4,383.4396,215.265,62.4537,47.10523
482699,387.1182,213.3645,62.6774,46.85178
482714.7,391.6081,211.3176,62.94593,46.57612
482732.3,395.5167,209.5701,63.17575,46.33855
482749,399.257,208.0108,63.39232,46.12478
482765.5,402.8952,206.5829,63.59988,45.92758
482781.1,407.3634,204.9245,63.85071,45.69677
482799.6,411.8459,203.5491,64.09793,45.50389
482815.3,416.1749,202.3707,64.33259,45.33758
482832.3,419.6278,201.6408,64.51693,45.23406
482848.5,422.9329,200.9187,64.69109,45.13129
482867,425.6469,200.4057,64.83243,45.05805
482881.7,428.1207,199.9919,64.96,44.99884
482898.9,431.0425,199.3139,65.10911,44.90155
482916.3,433.7884,198.7506,65.24773,44.82047
482933.8,436.1229,198.1989,65.36446,44.74085
482951.2,438.0398,197.7179,65.45953,44.67124
482968.1,439.9681,197.2564,65.55448,44.6043
482983,441.6957,196.7617,65.63896,44.53237
482999.9,443.1856,196.3522,65.71138,44.4727
483019,444.1043,195.9459,65.75584,44.41336
483035.3,444.9308,195.5107,65.79569,44.34968
483051,445.519,195.0934,65.82399,44.28849
483069.1,445.7645,194.4713,65.83578,44.19702
483085.8,446.204,193.8317,65.85686,44.10269
483100.8,446.4535,193.172,65.86881,44.00508
483117.4,446.675,192.5561,65.87941,43.91366
483135.7,446.6655,191.9807,65.87896,43.82799
483151.2,446.4826,191.5908,65.87021,43.76979
483169,446.0761,191.0806,65.85073,43.69348
483184.9,445.2223,190.669,65.80973,43.63176
483201.4,444.3344,190.2061,65.76694,43.56221
483218.8,443.1139,189.9269,65.70791,43.52018
483235.7,441.1937,189.5548,65.61447,43.46409
483254.9,439.5668,189.5162,65.53478,43.45826
483270.1,437.5456,189.4106,65.43508,43.44231
483287.5,435.8372,189.4179,65.35023,43.44342
483302.2,434.0114,189.1735,65.25893,43.40649
483318.9,432.5405,188.8356,65.18491,43.35535
483335,431.2015,188.4785,65.11717,43.30123
483352.7,430.3261,187.9944,65.0727,43.22767
483370,429.6735,187.6795,65.03945,43.17975
483386.8,429.518,187.7524,65.03151,43.19085
483402.1,430.1819,187.7469,65.06536,43.19002
483420.8,430.8913,187.9022,65.10143,43.21365
483436,431.802,188.1422,65.1476,43.25015
483451.5,433.1167,188.4055,65.21396,43.29014
483471.6,434.3047,188.7006,65.27364,43.3349
483487,435.9936,189.5875,65.35802,43.46902
483501.9,437.8165,190.8422,65.44849,43.65775
483518.9,440.3176,192.6299,65.57162,43.92462
483534.8,443.5847,194.6203,65.73071,44.21896
483552.6,446.7813,196.6988,65.8845,44.52322
483569.2,450.2408,199.5807,66.04888,44.93988
483586.7,453.1206,202.3507,66.18412,45.33474
483602.3,456.1107,205.5791,66.32303,45.7881
483618.5,458.4001,208.9703,66.42835,46.25651
483635.5,460.6254,212.0873,66.52988,46.68011
483653.2,462.3032,214.6432,66.6059,47.02257
483670.7,463.4568,216.6523,66.65789,47.28872
483687.5,464.2858,218.255,66.69511,47.49912
483706.5,465.0062,219.4822,66.72737,47.6591
483721.1,465.6911,220.6139,66.75797,47.80577
483738.6,466.1796,221.1514,66.77974,47.87514
483753.3,466.5533,221.8352,66.79636,47.96313
483768.9,466.436,222.332,66.79115,48.02686
483785.7,466.118,222.8983,66.77699,48.09931
483802.7,465.8982,223.4034,66.7672,48.16378
483819.7,465.5389,223.9474,66.75117,48.23302
483835.6,464.9664,224.4495,66.72559,48.29675
483853.9,464.5419,224.7998,66.70659,48.34113
483870.7,464.1766,225.0168,66.69022,48.36858
483885.4,463.8748,225.2366,66.67667,48.39637
483902,463.8474,225.5084,66.67544,48.43066
483918.6,463.9453,225.612,66.67984,48.44373
483935,463.9283,225.7004,66.67907,48.45488
483953.7,463.7118,225.7856,66.66935,48.4656
483969.3,463.3747,225.8519,66.65419,48.47395
483985.9,463.0542,225.9224,66.63976,48.48282
484005.9,462.7706,225.9702,66.62698,48.48884
484020.9,462.4743,226.0335,66.61362,48.49681
484038.4,462.3302,226.1824,66.60711,48.51553
484053.9,462.3432,226.4574,66.6077,48.55008
484073.2,462.4234,226.8539,66.61132,48.5998
484089.6,462.5966,227.2704,66.61913,48.65194
484104.3,462.7744,227.7459,66.62716,48.71131
484120.8,462.9313,228.0719,66.63422,48.75195
484137.4,463.0381,228.3572,66.63904,48.78745
484153.6,462.9975,228.0876,66.63721,48.75391
484171.2,462.9106,227.2962,66.6333,48.65516
484189.4,462.8999,225.5011,66.63281,48.42974
484207.3,462.7401,224.0888,66.62561,48.25098
484220.5,462.219,222.0002,66.60209,47.98431
484243.5,461.5207,219.731,66.5705,47.69142
484255.5,460.5846,217.4851,66.52803,47.39826
484270.3,458.9741,214.6344,66.45462,47.02139
484288.5,457.0542,211.8852,66.36654,46.65284
484305,454.7368,209.2224,66.2594,46.29103
484321.3,452.1063,206.6351,66.13666,45.93482
484339.7,449.7785,204.3325,66.02704,45.61392
484355.5,446.9936,201.6192,65.89465,45.231
484371.4,443.9947,198.8778,65.75054,44.8388
484387.1,440.1243,195.8785,65.56214,44.40351
484406,435.5047,192.9766,65.33365,43.9761
484421.4,430.3362,190.1832,65.07321,43.55877
484437.7,425.6385,187.2796,64.832,43.11877
484455,420.286,183.9167,64.55179,42.60114
484473.6,414.6055,181.2664,64.24798,42.18703
484491.7,410.3259,179.7122,64.01459,41.94163
484506.1,405.3187,177.9796,63.73648,41.66582
484520.6,399.237,175.8123,63.39117,41.31746
484544.5,394.7487,174.4234,63.13088,41.09223
484556.7,390.0332,172.8303,62.8523,40.83199
484576.9,385.7447,171.3703,62.59427,40.59166
484593.3,381.9066,170.2111,62.35948,40.39963
484607.2,377.7596,168.9495,62.10159,40.18937
484626.1,373.5073,167.4824,61.83252,39.94321
484643,369.951,166.4239,61.60381,39.7645
484657.6,365.6566,164.9201,61.32305,39.50901
484674.8,361.4412,163.494,61.04247,39.26497
484692.1,357.5023,162.255,60.77573,39.05156
484707.5,352.2969,160.6444,60.41629,38.7722
484722.8,346.6728,159.0652,60.0188,38.49614
484741.5,339.7029,157.5995,59.51256,38.23802
484758.3,333.8534,156.6949,59.07563,38.07779
484773.7,327.3054,156.0538,58.57298,37.96381
484796,321.9015,155.0435,58.14698,37.78347
484810.3,316.1598,153.9877,57.6829,37.59406
484824.5,310.5742,153.0247,57.21974,37.42046
484842.5,305.2092,152.2116,56.76365,37.27324
484856.8,299.8606,151.9277,56.29764,37.2217
484875.3,295.3013,151.9272,55.89122,37.2216
484892.3,290.8793,151.9558,55.48874,37.22681
484907.7,286.5544,151.9778,55.08697,37.2308
484925.2,281.6627,151.5417,54.62261,37.15152
484944.5,278.3328,151.0274,54.30032,37.0578
484956.9,274.4611,150.3421,53.91915,36.93258
484974.5,270.5219,149.8584,53.52404,36.84392
484990.8,266.5601,149.5511,53.11911,36.78751
485007.2,262.5517,149.4428,52.70149,36.76761
485022.2,258.3869,149.4218,52.25895,36.76375
485039.4,254.1061,149.0719,51.79467,36.69936
485056.3,249.4265,148.6618,51.27599,36.62376
485074,244.338,148.2081,50.69836,36.53994
485092.8,240.2897,148.0016,50.22842,36.50174
485108.8,235.879,147.6789,49.70564,36.44195
485122.2,231.1258,147.3791,49.1294,36.38633
485138.4,226.5233,147.3066,48.55834,36.37287
485154,221.9039,147.6943,47.97195,36.44481
485171.2,217.7024,147.9113,47.42677,36.48503
485189.3,213.1657,147.9495,46.82513,36.4921
485205.1,208.3062,148.0127,46.16541,36.5038
485221.8,203.4026,148.2533,45.48326,36.54831
485238.3,197.7934,149.0156,44.68218,36.68898
485255.2,192.3508,149.7712,43.88312,36.82792
485272.2,186.7316,150.4662,43.03501,36.95527
485290.2,182.0997,151.2959,42.31781,37.10676
485305.7,177.5877,152.373,41.60311,37.3025
485321.5,173.1523,153.7506,40.88475,37.55139
485338.7,169.8497,155.6234,40.33953,37.88709
485357.9,166.8471,157.6149,39.83606,38.24074
485373.5,163.8989,160.2734,39.33444,38.70753
485391.3,161.6362,163.1702,38.94449,39.20932
485405.8,159.7406,166.8705,38.61446,39.84002
485421.7,158.6916,171.313,38.43052,40.5822
485439.7,157.4477,175.8672,38.21119,41.32632
485459.4,156.8778,180.573,38.11024,42.07777
485472.4,155.9928,185.3531,37.95294,42.82329
485489.8,155.0483,190.6346,37.78433,43.6266
485507.4,154.5585,196.6974,37.69658,44.52301
485522.6,154.4618,202.4363,37.67923,45.34686
485540.9,155.0325,208.3354,37.78149,46.16943
485557.8,155.2568,213.2952,37.82161,46.8425
485573.7,155.9391,218.6117,37.94338,47.54572
485591,156.7475,223.692,38.08713,48.20053
485608,157.9894,228.4375,38.30687,48.79744
485624.3,159.4882,233.1491,38.5703,49.37634
485640.7,160.5471,237.914,38.75526,49.94825
485661.1,161.6123,241.7447,38.94034,50.39839
485676.6,163.0303,245.9512,39.18524,50.88305
485691.8,163.9768,249.8876,39.34777,51.32763
485709.3,164.361,253.6161,39.41354,51.74091
485726.9,164.7657,257.4369,39.48266,52.15675
485745.4,165.0311,259.7271,39.52793,52.40233
485759.6,165.4005,262.2076,39.59083,52.66527
485775.3,165.6532,264.9378,39.6338,52.95106
485794.6,165.2223,267.0283,39.5605,53.16737
485809.1,164.7741,269.2845,39.4841,53.3984
485826.2,164.4441,271.3747,39.42774,53.61022
485843.2,164.6167,272.943,39.45723,53.76776
485858.9,164.7993,274.8683,39.4884,53.95957
485878.6,164.8727,276.9256,39.50093,54.16259
485891.9,165.0056,279.1821,39.52358,54.38301
485913.7,165.4372,280.9019,39.59708,54.54943
485928.2,165.6292,282.6628,39.62973,54.71843
485944.7,165.3959,284.1666,39.59005,54.86164
485961.9,165.2145,285.6494,39.55918,55.00186
485978.5,165.1841,286.9181,39.55399,55.12107
485993.1,165.1496,288.4944,39.54812,55.2682
486012.2,165.0625,289.9588,39.53328,55.4039
486029.5,164.9816,291.3239,39.51949,55.52958
486044.5,164.8515,292.7218,39.49731,55.65745
486060.5,164.3851,294.5971,39.41766,55.82768
486079.8,163.8864,296.271,39.33229,55.97838
486096.4,163.3963,298.3307,39.2482,56.16222
486120,162.6007,301.7499,39.11124,56.46357
486146.4,162.0439,303.5378,39.01506,56.61925
486160.9,161.7486,304.52,38.96396,56.70424
486175.3,161.7882,305.3101,38.97081,56.77233
486183.3,162.0511,306.1436,39.01632,56.84388
486199.6,162.2685,307.0443,39.05389,56.92091
486212.2,162.4842,308.0524,39.09113,57.00675
486228.3,162.9765,309.1056,39.17598,57.096
486245.5,163.5489,310.2452,39.27439,57.1921
486262.6,164.1789,311.2541,39.38239,57.27675
486278.9,164.7435,312.1485,39.47887,57.35147
486295.4,165.3359,313.0949,39.57985,57.43021
486312.8,166.2794,314.0777,39.74004,57.51162
486330.4,167.1684,314.8733,39.89029,57.57726
486345.9,168.1491,315.6401,40.05529,57.6403
486367.3,169.2509,316.1859,40.23971,57.68504
486379.3,170.1991,316.7452,40.39763,57.73077
486394,171.5892,317.2519,40.62782,57.77209
486411.8,173.0473,317.6446,40.86757,57.80407
486429.4,174.3429,317.6483,41.07913,57.80437
486445.8,175.5882,317.6499,41.28122,57.80449
486461.9,176.9003,317.5907,41.49281,57.79968
486478.1,178.4116,317.5849,41.73481,57.79921
486497.7,180.2532,317.6421,42.02727,57.80386
486511.5,181.8708,317.7859,42.28195,57.81556
486528.4,183.2493,317.86,42.49737,57.82158
486546,184.426,318.0283,42.68009,57.83524
486563.3,185.7268,318.1149,42.88083,57.84227
486579.2,187.2065,318.2231,43.10761,57.85106
486595.6,188.9261,318.2964,43.36906,57.857
486612.6,190.6189,318.3962,43.62424,57.86509
486633.1,191.8376,318.5046,43.80664,57.87387
486648.4,192.9639,318.581,43.97422,57.88006
486663.7,194.5527,318.5637,44.20901,57.87866
486681,195.9602,318.6845,44.41545,57.88845
486695.8,197.4505,318.7477,44.63247,57.89355
486716.5,198.66,318.8063,44.80742,57.8983
486730.6,200.3369,319.0535,45.04822,57.91829
486748.2,202.4284,319.2088,45.34575,57.93084
486763.3,205.5195,319.4077,45.7798,57.94689
486779.8,209.1234,319.4497,46.27748,57.95028
486796.4,213.9988,319.1446,46.93664,57.92565
486812.3,220.6633,318.0728,47.81216,57.83886
486829.3,227.004,316.853,48.6186,57.73957
486845.5,234.0919,315.2576,49.49058,57.60888
486865.5,242.0543,313.4916,50.43441,57.46312
486879.3,249.5854,311.7454,51.2938,57.31783
486895.5,259.5717,309.174,52.38574,57.10178
486917.2,265.2157,307.8881,52.97994,56.99278
486930.8,273.1333,306.1468,53.7868,56.84417
486948.2,280.8946,304.7697,54.54873,56.72578
486965.9,288.233,303.6946,55.24388,56.63285
486981.1,296.1299,302.7369,55.96572,56.54967
486997.4,303.5557,301.9324,56.62081,56.47952
487013.8,311.2943,301.1927,57.28011,56.41477
487030.8,319.9014,300.0176,57.98668,56.31149
487047.5,328.7179,298.611,58.68265,56.1871
487064.6,337.5293,297.0858,59.35151,56.05131
487080.7,347.1982,295.4282,60.05635,55.90265
487097.9,356.8862,293.9465,60.73361,55.76879
487114.3,368.3172,292.3789,61.49759,55.62616
487132.3,377.573,291.3775,62.08988,55.5345
487148.1,388.7453,290.6972,62.77528,55.47198
487163.7,400.4357,289.8207,63.45989,55.39115
487180.3,411.1964,289.5327,64.06238,55.36451
487197.3,423.4676,289.8523,64.71905,55.39407
487215.7,436.1152,289.8341,65.36407,55.39239
487233.3,447.9246,290.0902,65.93906,55.41604
487254.8,461.7518,290.5252,66.58096,55.45615
487266.5,474.2671,291.0906,67.13469,55.50816
487281.7,485.077,291.6404,67.59337,55.55861
487297,495.4272,292.0523,68.01646,55.59631
487312.8,508.7649,292.7206,68.53977,55.65734
487332.8,522.5795,293.5387,69.0573,55.73179
487352.7,531.5684,294.0427,69.38144,55.77751
487366,540.6502,295.0542,69.69931,55.86895
487383.6,549.3361,296.1096,69.99466,55.9639
487397.7,557.2292,297.0669,70.25599,56.04963
487415.2,563.4692,298.0233,70.45798,56.1349
487434.1,568.6578,298.2462,70.62296,56.15471
487450.7,572.618,298.0616,70.74707,56.1383
487467.1,573.1281,297.5315,70.76295,56.09109
487483.3,574.1727,296.886,70.79538,56.03345
487498.8,574.023,296.4195,70.79074,55.9917
487515.2,571.9387,295.3564,70.72589,55.89618
487533.1,569.72,294.1523,70.65639,55.78744
487549.7,567.7371,293.1239,70.59388,55.69408
487567.8,565.1096,291.7442,70.51044,55.56811
487581.6,561.4692,290.1526,70.39368,55.4218
487599.1,558.7315,288.5876,70.30499,55.27686
487617.3,555.9496,286.9489,70.21407,55.12396
487634.3,553.2397,285.4348,70.12473,54.98163
487659.2,551.1645,283.8107,70.05578,54.82784
487672,549.9949,282.7956,70.01672,54.73111
487682.7,549.1033,281.6914,69.98685,54.62537
487699.8,548.2062,280.4629,69.9567,54.50708
487714.3,547.3095,279.196,69.92648,54.38436
487734,546.6108,278.0353,69.90288,54.27129
487749.4,546.0435,276.5921,69.88367,54.12981
487766.5,545.3456,275.1276,69.86,53.98526
487789.9,544.902,273.7446,69.84492,53.84783
487802.1,544.4494,272.6176,69.82951,53.73517
487817.3,543.8076,271.2426,69.80763,53.59689
487835.2,543.3732,269.8477,69.79279,53.45568
487851.2,543.3674,268.0758,69.79259,53.27494
487869.2,543.5923,266.2916,69.80029,53.09138
487887.3,543.5777,264.8862,69.79978,52.94569
487901.5,543.5178,263.3206,69.79774,52.78222
487917.4,543.2993,261.5209,69.79027,52.59279
487934.4,542.775,259.6236,69.77233,52.39128
487952.7,542.1728,257.7896,69.75169,52.19475
487969.9,541.4255,256.0865,69.72601,52.01066
487984.7,540.6122,254.3238,69.698,51.81852
488001.9,540.2213,252.6018,69.68451,51.62923
488018.9,539.6917,251.0195,69.6662,51.45389
488036.6,539.0361,249.6772,69.6435,51.30408
488053.3,538.2612,248.4024,69.61661,51.16088
488069.6,537.287,247.2896,69.5827,51.03516
488085.7,536.1893,246.1038,69.54436,50.90044
488103.1,535.2792,245.0545,69.51247,50.78057
488119.2,534.0336,243.8577,69.46866,50.6431
488136.1,532.6304,242.6446,69.4191,50.50292
488151.9,530.893,241.3779,69.35741,50.35566
488168.6,529.1342,240.1017,69.29462,50.20637
488185.9,527.2426,238.6308,69.22666,50.03313
488203.4,525.6819,237.2357,69.17027,49.86766
488220.1,524.2679,235.7073,69.11893,49.68506
488236.8,522.9443,234.2033,69.07065,49.50404
488252,521.2889,232.4768,69.00997,49.29456
488270.2,519.7224,230.8809,68.95223,49.09933
488286.4,517.8755,228.9229,68.88378,48.85769
488304,516.0261,227.0293,68.8148,48.62177
488320.7,514.1553,225.2572,68.74458,48.39896
488337.1,512.4872,223.8053,68.6816,48.21494
488351,510.7031,222.1102,68.61385,47.99842
488368.7,509.2303,220.53,68.5576,47.79493
488385.2,507.7191,218.9893,68.4996,47.59497
488402.3,506.0262,217.5842,68.43426,47.41127
488418.7,504.1715,216.1662,68.36225,47.22456
488436.1,502.0638,214.6503,68.27985,47.02352
488453,499.8063,213.1403,68.19093,46.82173
488469.4,497.6659,211.6908,68.10599,46.62659
488485.9,495.4747,210.2492,68.01837,46.43112
488503.1,493.528,208.8445,67.93997,46.23928
488520.3,491.5059,207.6346,67.85797,46.07298
488536.6,489.666,206.7932,67.78284,45.95672
488555.4,487.5883,205.9394,67.69743,45.83825
488570,485.0505,205.2835,67.59226,45.7469
488590.2,482.8074,204.8417,67.49852,45.68519
488603,480.6547,204.4515,67.40784,45.63059
488621,478.4946,204.129,67.31617,45.58537
488637.5,476.6889,204.0151,67.23898,45.56939
488652.9,474.7704,203.9274,67.15644,45.55707
488671,473.0266,204.062,67.08091,45.57597
488689.2,471.1287,203.9867,66.99818,45.5654
488705.5,469.6014,203.7724,66.93118,45.53529
488720.8,467.9228,203.3661,66.85712,45.47812
488737.6,466.5176,202.9437,66.79478,45.41857
488753.3,465.269,202.5744,66.73912,45.36639
488770.5,464.0058,202.169,66.68256,45.30901
488788.8,462.8221,201.8339,66.6293,45.26149
488806.8,461.6563,201.3075,66.57664,45.18667
488821.7,460.3419,200.6272,66.517,45.0897
488838.5,458.8482,199.6264,66.44887,44.94643
488854.5,457.2403,198.5873,66.37511,44.79692
488873,455.8192,197.758,66.30955,44.67705
488888.9,454.3422,196.5525,66.24106,44.5019
488905.5,453.0561,195.4122,66.18111,44.33525
488920.2,451.7583,194.1321,66.12033,44.14704
488937,450.5259,192.7783,66.06234,43.94667
488954,449.2885,191.4149,66.00385,43.74351
488970.3,447.9395,190.179,65.93977,43.55814
488986.7,446.2832,188.8361,65.86066,43.35543
489004,444.7066,187.5667,65.7849,43.16255
489020.3,443.2078,185.9847,65.71246,42.92048
489038.3,441.9646,184.7295,65.65206,42.72704
489053,440.3877,183.4081,65.57505,42.52208
489070.3,438.8415,181.9657,65.49909,42.29682
489087.6,437.0961,180.7552,65.41281,42.10652
489102.9,434.3883,179.5027,65.27783,41.90841
489120.1,431.6354,178.0863,65.13916,41.68288
489136.5,428.7839,176.2051,64.99399,41.38087
489152.7,425.2253,173.746,64.81058,40.98183
489169.3,421.5648,171.5284,64.61927,40.61778
