Time Stamp(ms),Intersection,,Angle,
,x,y,x,y
1128149,318.927,245.1277,57.90806,50.78894
1128167,318.9935,245.053,57.91344,50.78039
1128182,319.0632,245.0087,57.91908,50.77532
1128198,319.1632,244.9872,57.92715,50.77286
1128216,319.1989,244.9176,57.93003,50.76488
1128235,319.2401,244.8985,57.93336,50.7627
1128250,319.2624,244.9048,57.93516,50.76342
1128267,319.4277,244.7848,57.9485,50.74966
1128283,319.5007,244.7326,57.9544,50.74368
1128301,319.501,244.7484,57.95441,50.74548
1128316,319.668,244.8249,57.96788,50.75426
1128333,319.809,244.8959,57.97924,50.7624
1128350,319.8792,245.0035,57.98489,50.77472
1128367,319.935,245.1656,57.98938,50.79329
1128384,320.0814,245.077,58.00117,50.78315
1128399,320.0041,245.1382,57.99494,50.79015
1128416,319.9134,245.0761,57.98764,50.78304
1128434,319.8086,245.1318,57.97921,50.78942
1128449,319.4954,245.1562,57.95397,50.79221
1128464,319.1528,245.0985,57.92631,50.78561
1128486,318.9367,244.9773,57.90885,50.77172
1128497,318.5653,244.8092,57.87879,50.75245
1128517,318.1754,244.6878,57.84719,50.73853
1128534,317.8706,244.7769,57.82244,50.74875
1128549,317.622,244.8149,57.80223,50.75311
1128565,317.3034,244.8505,57.77629,50.75719
1128582,316.6404,244.762,57.72221,50.74704
1128598,316.1436,244.6615,57.68157,50.73552
1128614,315.5485,244.6223,57.63278,50.73102
1128633,314.6985,244.7788,57.56286,50.74897
1128650,313.8752,244.9781,57.49488,50.77182
1128665,313.0047,245.292,57.42272,50.80775
1128681,311.8225,245.4148,57.32427,50.82179
1128698,310.7369,245.2122,57.2334,50.79862
1128714,309.2483,244.71,57.10806,50.74108
1128732,307.7248,244.4783,56.97889,50.71448
1128749,305.9131,244.343,56.82413,50.69894
1128764,303.4049,244.2689,56.60773,50.69042
1128782,301.1898,243.9646,56.41452,50.65541
1128798,298.6269,243.2743,56.18851,50.57578
1128816,296.2168,242.3573,55.97352,50.4696
1128833,293.9344,241.4329,55.7677,50.36207
1128848,290.8755,240.4913,55.48839,50.25204
1128865,287.9173,239.9272,55.21446,50.18589
1128881,285.2315,239.5648,54.96244,50.14327
1128898,282.4964,238.8876,54.70251,50.06347
1128915,279.2729,237.8612,54.39183,49.94199
1128934,276.122,236.865,54.08353,49.82349
1128947,272.7618,235.9311,53.74962,49.71189
1128964,269.5214,235.0518,53.42251,49.60633
1128981,265.6248,233.8462,53.02238,49.46086
1129002,261.7616,232.4946,52.61821,49.29672
1129018,257.0531,230.7528,52.11532,49.0836
1129034,252.3735,228.8487,51.60401,48.8485
1129051,247.8845,226.8052,51.10246,48.5937
1129068,242.8692,224.3778,50.52894,48.28766
1129090,238.4062,222.1422,50.00657,48.00253
1129101,234.0553,220.0999,49.48615,47.73925
1129116,228.9506,217.6822,48.86114,47.42411
1129133,224.2284,215.5569,48.26871,47.14394
1129152,220.0212,213.7849,47.72905,46.90806
1129167,215.6592,212.0485,47.15749,46.67488
1129186,211.0971,210.2637,46.54626,46.43308
1129201,207.1895,208.8421,46.01154,46.23896
1129219,203.4355,207.4477,45.4879,46.04719
1129235,199.5757,205.9773,44.93917,45.84352
1129253,196.136,204.8701,44.44115,45.68917
1129272,192.4679,203.7804,43.90054,45.53642
1129283,189.0324,203.0864,43.38514,45.43871
1129302,185.7182,202.5275,42.87951,45.35976
1129319,183.3727,202.2819,42.51657,45.325
1129335,180.8847,201.9787,42.12693,45.28202
1129352,178.7183,201.7011,41.78371,45.24263
1129368,176.3872,201.416,41.41023,45.2021
1129385,174.1754,201.1602,41.05185,45.1657
1129401,171.9794,201.1274,40.69213,45.16104
1129417,169.5053,201.3735,40.28217,45.19607
1129435,167.5806,201.64,39.95974,45.23395
1129450,165.9777,201.8337,39.68889,45.26145
1129467,164.5107,201.7502,39.43913,45.2496
1129484,163.1615,201.6343,39.20783,45.23314
1129500,162.4235,201.2913,39.08066,45.18436
1129518,162.1472,200.8272,39.03292,45.11824
1129534,162.262,200.2853,39.05276,45.04083
1129552,163.1382,199.4916,39.20382,44.92708
1129569,164.1661,198.8175,39.38019,44.83011
1129585,165.5314,198.2614,39.61309,44.74987
1129600,167.7452,197.8473,39.98744,44.68998
1129618,169.9824,197.5559,40.36161,44.64776
1129634,173.5475,197.2878,40.9494,44.60886
1129655,176.6146,197.0803,41.44685,44.57872
1129669,180.7968,196.9237,42.11308,44.55595
1129685,185.1791,196.882,42.79647,44.54988
1129704,189.6826,197.0093,43.48338,44.56839
1129721,195.2385,197.073,44.30978,44.57766
1129738,199.9752,197.1052,44.99645,44.58233
1129754,204.9764,197.2061,45.70403,44.59699
1129771,210.4266,197.338,46.45525,44.61615
1129789,215.9661,197.4247,47.19812,44.62873
1129806,220.9391,197.4276,47.84776,44.62916
1129821,226.5457,197.3977,48.56116,44.62481
1129839,231.7374,197.2972,49.2043,44.61023
1129854,237.6477,197.0401,49.91664,44.57286
1129872,243.2021,196.6196,50.56745,44.51168
1129888,248.9246,195.7781,51.21965,44.38884
1129904,254.7324,194.6224,51.86321,44.21927
1129921,260.4957,193.6142,52.48414,44.07055
1129938,266.214,192.5426,53.08337,43.91165
1129954,272.285,191.3804,53.70181,43.73835
1129972,278.1119,190.3931,54.27877,43.59034
1129988,284.118,189.5286,54.85703,43.46014
1130005,290.1888,188.6583,55.42514,43.32848
1130022,295.8489,187.9017,55.94049,43.21357
1130038,302.0364,187.2211,56.4886,43.10983
1130056,307.9687,186.4634,56.99963,42.99393
1130072,313.4283,185.9278,57.45787,42.91174
1130091,318.9228,185.3986,57.90772,42.8303
1130106,324.3286,185.0493,58.33958,42.77643
1130121,329.6274,184.5839,58.7529,42.70452
1130139,335.2737,184.0653,59.18276,42.62418
1130158,339.7343,183.6154,59.51487,42.55433
1130173,344.0215,183.0069,59.82803,42.45959
1130190,347.9901,182.5652,60.11277,42.39064
1130205,351.6389,182.6083,60.37029,42.39738
1130221,354.9189,182.9442,60.59835,42.4498
1130238,357.6295,183.5467,60.78442,42.54364
1130254,359.8205,184.5587,60.93327,42.70061
1130272,361.7714,185.4355,61.06463,42.83599
1130287,363.5685,186.5025,61.18469,42.99992
1130303,365.1615,187.5047,61.29035,43.15311
1130320,366.5061,188.6976,61.37899,43.33444
1130337,367.409,190.7373,61.43823,43.64202
1130355,368.3464,193.3355,61.49949,44.0293
1130373,368.8978,196.8714,61.53542,44.54834
1130389,369.5907,200.0303,61.58044,45.00434
1130404,370.4245,203.3638,61.63446,45.4778
1130421,371.2856,206.7165,61.69003,45.94609
1130437,372.2594,209.3283,61.75265,46.3055
1130453,373.226,212.2958,61.81455,46.70821
1130473,373.8955,214.4044,61.85728,46.99076
1130487,374.4142,216.5487,61.8903,47.27505
1130503,374.6288,218.6147,61.90395,47.54612
1130520,374.6502,220.5295,61.9053,47.79486
1130538,374.7578,222.7126,61.91214,48.07558
1130555,374.4756,224.8725,61.89421,48.35033
1130571,374.17,226.6752,61.87477,48.5774
1130590,373.8162,228.2261,61.85223,48.77114
1130606,373.5363,229.7747,61.83437,48.9631
1130623,373.1013,231.3415,61.80658,49.15584
1130639,372.5848,233.1458,61.77351,49.37593
1130655,371.9727,235.2816,61.73424,49.63396
1130673,371.2393,237.2642,61.68705,49.87105
1130689,370.4959,239.0211,61.63907,50.07922
1130705,369.902,240.7334,61.60063,50.28038
1130722,369.5014,242.3815,61.57465,50.4724
1130739,369.2181,243.9685,61.55625,50.65585
1130755,368.8751,245.7636,61.53394,50.86165
1130772,368.6165,247.4065,61.5171,51.04841
1130789,368.3482,248.9551,61.49961,51.22308
1130805,367.9631,250.3716,61.47447,51.3817
1130821,367.3878,251.552,61.43684,51.51305
1130839,366.9071,252.4373,61.40533,51.61106
1130854,366.4276,253.3685,61.37383,51.71371
1130872,365.9761,254.3036,61.34411,51.81631
1130889,365.7401,255.0627,61.32856,51.89926
1130906,365.6665,255.6192,61.3237,51.95988
1130921,365.6518,256.3035,61.32273,52.0342
1130939,365.7033,256.8009,61.32613,52.08806
1130955,365.8037,257.2598,61.33275,52.13764
1130973,365.9429,257.6816,61.34193,52.18312
1130990,366.1507,257.9845,61.35561,52.21571
1131008,366.2231,258.2033,61.36037,52.23923
1131022,366.3318,258.5135,61.36752,52.27253
1131039,366.4356,258.8467,61.37436,52.30825
1131055,366.5401,259.1488,61.38122,52.34057
1131073,366.7558,259.5657,61.3954,52.38511
1131088,367.0272,259.8904,61.4132,52.41973
1131105,367.1926,260.1504,61.42405,52.44742
1131121,367.3025,260.38,61.43125,52.47184
1131138,367.3163,260.6223,61.43216,52.49758
1131154,367.1697,260.8098,61.42255,52.51748
1131172,366.8429,260.9934,61.40112,52.53695
1131192,366.4605,261.0889,61.376,52.54707
1131206,365.6582,261.2129,61.32315,52.5602
1131221,364.8531,261.2781,61.26995,52.5671
1131239,363.8303,261.3334,61.2021,52.57296
1131254,362.3546,261.3618,61.10369,52.57597
1131273,360.9368,261.3124,61.00857,52.57073
1131289,358.7294,261.1302,60.85932,52.55145
1131306,356.4158,260.7324,60.70137,52.50927
1131322,353.6475,260.2657,60.51033,52.45969
1131339,349.6812,259.6317,60.23262,52.39215
1131357,345.3503,259.0115,59.92392,52.32589
1131372,342.1044,258.5927,59.68872,52.28103
1131389,337.6034,258.1335,59.35703,52.23173
1131407,332.7676,257.7324,58.99329,52.18858
1131426,329.3285,257.4432,58.72984,52.15742
1131439,325.083,256.9373,58.39903,52.10281
1131455,320.4009,256.3727,58.02685,52.0417
1131471,315.4304,255.6765,57.62309,51.96611
1131490,311.3826,255.0465,57.28751,51.8975
1131508,306.9462,254.0763,56.91254,51.79141
1131526,303.1717,253.2691,56.58747,51.70277
1131540,299.5309,252.5052,56.26854,51.61856
1131556,295.8807,251.7603,55.94335,51.53614
1131573,292.7147,251.1806,55.6568,51.47179
1131590,289.6445,250.6178,55.37486,51.40916
1131609,286.7164,250.0374,55.10217,51.34437
1131626,284.222,249.5615,54.8669,51.29112
1131643,282.0725,249.1101,54.66193,51.24049
1131659,280.0498,248.5876,54.46714,51.18175
1131677,278.3858,248.1591,54.30549,51.13345
1131692,277.0219,247.6479,54.17205,51.07571
1131709,275.5917,247.1076,54.03118,51.01453
1131726,274.1915,246.4456,53.89235,50.93935
1131742,273.0294,245.7695,53.77641,50.86231
1131758,271.9319,245.0812,53.66632,50.78363
1131775,270.7614,244.2988,53.54828,50.69386
1131794,269.4208,243.4958,53.41227,50.60137
1131811,268.3553,242.7933,53.30355,50.52015
1131825,267.3716,242.1325,53.20268,50.4435
1131841,266.3409,241.4231,53.09647,50.36093
1131858,265.3868,240.7838,52.9977,50.28627
1131875,264.539,240.0915,52.90954,50.20517
1131890,263.7748,239.4697,52.82978,50.13208
1131907,262.9976,238.7926,52.74835,50.05225
1131924,262.3483,238.1834,52.68009,49.98019
1131942,261.6967,237.5562,52.61136,49.90577
1131959,261.1441,237.0518,52.55292,49.84576
1131975,260.775,236.5349,52.51379,49.7841
1131993,260.5935,236.2189,52.49453,49.74633
1132008,260.3499,235.9102,52.46864,49.70939
1132030,260.1217,235.5899,52.44437,49.67098
1132041,259.6771,235.1955,52.39699,49.62361
1132059,259.1738,234.821,52.34324,49.57855
1132075,258.3331,234.4627,52.25317,49.53535
1132092,257.504,234.1904,52.16398,49.50248
1132108,256.6943,233.8373,52.07653,49.45978
1132128,255.9784,233.5566,51.99892,49.42578
1132142,255.2123,233.2108,51.91557,49.38383
1132159,254.4576,232.8665,51.83317,49.342
1132175,253.5739,232.4569,51.73628,49.29214
1132192,252.7447,232.1021,51.645,49.24886
1132211,251.9356,231.8012,51.55556,49.2121
1132227,251.1093,231.3632,51.46387,49.15849
1132242,250.2487,230.9798,51.36798,49.11148
1132259,249.4099,230.6062,51.27412,49.06557
1132275,248.6621,230.1827,51.19013,49.01344
1132293,248.0563,229.8065,51.12185,48.96703
1132310,247.4468,229.4123,51.05296,48.91831
1132325,246.8319,228.9779,50.98326,48.86452
1132342,246.353,228.508,50.92881,48.80619
1132359,246.0156,228.0269,50.89038,48.74634
1132377,245.6962,227.4784,50.85395,48.67793
1132393,245.3153,226.9292,50.81042,48.60923
1132409,244.9136,226.3301,50.76443,48.5341
1132428,244.3454,225.5045,50.69921,48.43017
1132443,243.7446,224.7702,50.63006,48.33739
1132459,243.1334,223.9932,50.5595,48.23884
1132475,242.4567,223.0191,50.48113,48.11475
1132495,241.9563,222.0756,50.42301,47.99398
1132509,241.4668,220.9061,50.36603,47.84351
1132528,241.0575,219.1968,50.31826,47.62199
1132545,240.8183,217.4862,50.29031,47.3984
1132559,240.7327,215.6669,50.2803,47.15852
1132576,241.1017,213.2961,50.32343,46.84262
1132593,241.7229,211.0276,50.39586,46.53684
1132611,243.1353,208.4604,50.55972,46.18659
1132629,244.6424,206.1678,50.73332,45.86999
1132644,246.2178,204.2807,50.91343,45.60665
1132659,248.0997,202.116,51.12675,45.30149
1132676,250.5886,199.7572,51.4059,44.9652
1132696,253.4127,197.5916,51.71856,44.65293
1132713,256.1095,196.1249,52.01315,44.43952
1132727,259.3635,194.3513,52.36351,44.17936
1132744,263.2564,193.4814,52.7755,44.0509
1132760,266.9786,193.0798,53.16225,43.99141
1132777,270.886,192.4879,53.56089,43.90351
1132794,275.2395,191.699,53.99635,43.78595
1132812,278.6397,190.9154,54.33025,43.66872
1132828,282.2013,190.2943,54.67427,43.57549
1132847,285.5802,189.8851,54.99534,43.51389
1132862,288.7379,189.4153,55.29082,43.44303
1132878,291.6935,188.9371,55.56347,43.37072
1132894,294.5194,188.6118,55.82066,43.32145
1132912,296.9464,188.5092,56.03885,43.30587
1132928,299.1363,188.7181,56.23365,43.33755
1132943,301.5655,188.8378,56.44743,43.35568
1132960,303.9071,188.8752,56.65125,43.36135
1132976,306.7984,188.7169,56.89992,43.33737
1133000,308.5165,188.5128,57.04613,43.30643
1133011,310.3611,188.2677,57.20183,43.26922
1133029,312.3142,188.0803,57.36529,43.24075
1133046,314.0699,188.0216,57.51098,43.23182
1133062,315.5316,188.0978,57.6314,43.2434
1133080,316.9927,188.3596,57.75097,43.28317
1133097,318.3312,188.6835,57.85982,43.33231
1133112,319.8155,189.2065,57.97976,43.41147
1133130,321.4439,190.0758,58.11043,43.54261
1133148,323.1046,190.9229,58.24272,43.66986
1133164,324.5226,191.8156,58.3549,43.80336
1133180,326.1324,193.1073,58.48138,43.99548
1133200,327.4897,194.3452,58.58733,44.17845
1133213,328.9067,195.6743,58.69725,44.37365
1133230,330.3055,197.187,58.80509,44.59422
1133248,331.6624,198.7956,58.90907,44.82696
1133264,332.8932,200.668,59.00284,45.09553
1133279,334.0087,202.3643,59.08738,45.33667
1133296,335.1006,204.3513,59.16973,45.61654
1133314,335.9939,206.0698,59.23682,45.85637
1133331,336.8223,207.9041,59.2988,46.1101
1133348,337.4299,209.7743,59.34411,46.36641
1133364,338.0301,211.5349,59.38876,46.60552
1133381,338.555,213.4404,59.4277,46.86195
1133398,338.7141,215.1135,59.43949,47.08511
1133413,338.9237,216.9317,59.45501,47.32552
1133432,339.0566,218.7577,59.46483,47.56477
1133448,339.0868,220.4571,59.46707,47.7855
1133467,339.1688,222.0547,59.47313,47.99131
1133481,339.0118,223.4879,59.46152,48.17454
1133498,338.9624,224.9307,59.45787,48.3577
1133515,338.945,226.4086,59.45658,48.54395
1133531,338.8745,227.9315,59.45137,48.73445
1133548,338.7579,229.5553,59.44273,48.936
1133565,338.7573,231.2701,59.44269,49.14708
1133580,338.7242,232.7842,59.44024,49.33199
1133597,338.6768,234.2306,59.43673,49.50734
1133613,338.6021,235.8016,59.43119,49.69636
1133630,338.4987,237.3914,59.42353,49.88618
1133647,338.3611,238.7601,59.41332,50.0484
1133664,338.1363,240.2585,59.39664,50.22475
1133681,337.8257,241.6476,59.37356,50.38709
1133697,337.3459,243.0054,59.33785,50.54469
1133714,336.5854,244.3391,59.2811,50.69849
1133731,335.8618,245.5232,59.22692,50.83419
1133748,334.8633,246.5199,59.15187,50.9478
1133764,333.8619,247.3634,59.07628,51.04352
1133780,332.6993,248.0154,58.9881,51.11724
1133797,331.4942,248.6891,58.89621,51.19317
1133814,330.3796,249.3094,58.81079,51.26285
1133830,329.0194,249.9949,58.70597,51.33963
1133847,327.1891,250.7076,58.56392,51.41916
1133864,325.407,251.2646,58.4245,51.48114
1133880,322.7756,251.8625,58.21659,51.54747
1133896,320.0764,252.5728,58.00076,51.62603
1133914,317.3296,253.4072,57.77843,51.71796
1133930,314.5317,254.4195,57.54911,51.829
1133947,312.0211,255.4771,57.34085,51.94442
1133965,309.3617,256.6992,57.11764,52.07705
1133980,306.5677,258.214,56.8802,52.24038
1133999,303.721,260.0027,56.63514,52.4317
1134016,301.2047,261.8475,56.41583,52.62729
1134031,298.8369,263.8118,56.20713,52.83364
1134047,296.3331,266.3264,55.98395,53.09498
1134063,294.2841,269.3992,55.79937,53.41008
1134080,292.439,272.5583,55.63165,53.72923
1134097,290.8723,276.4268,55.48809,54.11355
1134115,289.4949,280.0785,55.36102,54.46992
1134132,288.4452,283.7658,55.26362,54.82357
1134149,287.7162,288.0173,55.19569,55.22379
1134167,286.8194,292.1978,55.11182,55.60961
1134184,286.0712,295.917,55.04158,55.94661
1134199,285.4852,299.4829,54.98639,56.2643
1134214,284.4647,303.6879,54.88991,56.63227
1134233,283.5276,306.7385,54.8009,56.89479
1134248,282.5553,309.6955,54.70815,57.14581
1134265,281.6911,312.6029,54.62534,57.38932
1134281,280.9953,315.3463,54.55842,57.61618
1134299,280.4442,317.9064,54.50527,57.82534
1134314,279.8987,320.7003,54.45251,58.05088
1134331,279.3984,323.2824,54.40401,58.25682
1134351,278.8949,325.5881,54.35509,58.43872
1134366,278.6804,327.7613,54.33421,58.60845
1134382,278.5067,330.063,54.31728,58.78645
1134399,278.5686,331.9885,54.32331,58.93396
1134414,279.0832,334.3152,54.3734,59.11054
1134431,279.5359,336.0653,54.41735,59.24217
1134448,280.0394,337.4204,54.46613,59.34341
1134464,280.846,338.3055,54.54404,59.40919
1134480,281.8347,339.2604,54.63912,59.4799
1134497,283.0972,340.0078,54.7599,59.53503
1134513,284.9828,340.8735,54.93895,59.59866
1134530,286.9822,341.9207,55.12708,59.67531
1134547,289.7103,342.9821,55.38095,59.75265
1134564,292.4031,343.9132,55.62837,59.8202
1134581,296.0091,344.7499,55.95488,59.88066
1134599,299.1815,345.5875,56.23765,59.94098
1134613,303.1891,346.8802,56.58899,60.03363
1134631,307.5768,348.5235,56.9663,60.15067
1134649,311.9057,350.1158,57.33121,60.26328
1134666,316.5386,352.1003,57.71389,60.40256
1134683,320.8945,354.3836,58.06646,60.56135
1134700,325.9688,357.9873,58.46857,60.80883
1134718,330.3365,361.18,58.80748,61.02493
1134733,334.9555,364.5719,59.15882,61.25133
1134752,339.6707,368.0067,59.51019,61.47732
1134770,344.0763,371.1378,59.832,61.68051
1134784,347.796,373.7571,60.09896,61.84846
1134800,351.8422,376.2607,60.38451,62.00729
1134819,355.4742,378.2476,60.63665,62.13216
1134836,358.0036,379.1263,60.80993,62.18707
1134852,360.2573,379.8263,60.96277,62.23066
1134867,362.9075,380.3945,61.14064,62.26596
1134886,364.9411,380.312,61.27578,62.26084
1134901,366.7644,380.308,61.39596,62.26059
1134918,367.9937,379.7421,61.47647,62.22542
1134936,369.2216,379.3106,61.55647,62.19856
1134953,370.306,378.8819,61.62679,62.17182
1134968,371.6185,378.4601,61.71147,62.14546
1134984,372.8835,378.3752,61.79265,62.14015
1135002,374.0379,378.3761,61.86636,62.14021
1135019,375.2137,378.0565,61.94106,62.1202
1135036,376.4155,377.6108,62.01705,62.09225
1135053,377.4076,377.0192,62.07949,62.05508
1135068,378.5998,375.8371,62.15419,61.98053
1135085,379.7932,374.8533,62.2286,61.91821
1135102,381.103,373.6105,62.30985,61.8391
1135118,382.534,371.6513,62.39811,61.71358
1135134,384.205,368.994,62.50053,61.54168
1135152,385.622,366.963,62.58682,61.40899
1135168,387.1776,364.4834,62.68099,61.24546
1135185,388.5626,362.0238,62.76432,61.08155
1135201,390.19,358.3311,62.86164,60.83224
1135218,391.6981,354.5761,62.95126,60.57467
1135234,393.1048,350.6141,63.03437,60.29837
1135250,394.6268,346.8834,63.12374,60.03386
1135269,396.0818,343.7481,63.20868,59.80824
1135284,397.8231,340.1682,63.30968,59.54683
1135303,399.2684,337.3777,63.39297,59.34022
1135318,401.0423,334.462,63.49454,59.12162
1135336,403.1205,331.2183,63.61263,58.8751
1135353,404.8461,328.2435,63.70994,58.64589
1135368,406.734,325.2937,63.81565,58.4156
1135387,408.595,321.9773,63.91907,58.15303
1135403,410.3343,317.953,64.01505,57.82913
1135419,411.5753,313.8964,64.08313,57.49664
1135434,412.7177,309.2139,64.14551,57.10515
1135452,413.6149,304.5245,64.1943,56.70463
1135470,414.2963,300.387,64.23125,56.34402
1135486,415.1744,296.363,64.27871,55.98663
1135503,416.1417,292.1173,64.3308,55.60226
1135522,416.7041,288.9752,64.361,55.31285
1135536,417.1035,285.4349,64.38241,54.98164
1135553,417.2305,281.6414,64.38921,54.62056
1135570,417.3826,277.6955,64.39735,54.23806
1135587,416.969,273.2914,64.37521,53.80261
1135604,416.547,269.6951,64.35258,53.44017
1135619,416.1625,266.4981,64.33192,53.11271
1135634,415.8039,262.9441,64.31263,52.74273
1135653,415.3923,259.9211,64.29046,52.423
1135672,414.6641,256.5712,64.25114,52.0632
1135687,414.3593,253.3688,64.23466,51.71374
1135703,414.2447,250.2945,64.22845,51.37309
1135719,414.0595,247.2426,64.21841,51.02984
1135736,413.9044,244.1934,64.21001,50.68173
1135754,413.7158,241.379,64.19978,50.35579
1135769,413.0773,238.8282,64.16508,50.05645
