Time Stamp(ms),Intersection,,Angle,
,x,y,x,y
894647.7,315.9952,248.0026,57.66942,51.1158
894667.6,316.4462,248.8001,57.70634,51.20565
894683.6,317.0307,249.1711,57.75407,51.24734
894700.4,317.9554,249.7815,57.82932,51.31575
894715.4,319.1574,250.63,57.92668,51.41052
894732.1,320.3612,251.3263,58.02366,51.48799
894748.6,322.3343,251.826,58.18148,51.54343
894765.5,324.4474,252.4456,58.34896,51.61198
894783.3,326.398,252.8812,58.50216,51.66005
894799.7,328.099,252.8621,58.63468,51.65794
894815.4,329.4125,252.549,58.73632,51.6234
894833.6,330.2967,252.2493,58.80441,51.59028
894849.6,331.0801,252.3033,58.86452,51.59625
894865.9,332.1864,252.809,58.94905,51.65209
894893.9,332.5744,253.0452,58.9786,51.67812
894901.2,332.7655,253.3853,58.99313,51.71555
894915.6,332.7307,253.5707,58.99048,51.73593
894932.4,331.8923,253.5147,58.92662,51.72977
894948.9,331.36,253.9302,58.88594,51.7754
894967.4,330.5869,254.5959,58.8267,51.84829
894983.4,330.1632,255.0233,58.79415,51.89497
894999.2,329.485,255.3307,58.74192,51.92847
895016.9,328.8787,255.6698,58.69509,51.96538
895033.5,328.6321,256.024,58.67601,52.00387
895049.3,328.7525,256.2936,58.68532,52.03312
895068.5,329.1038,256.5095,58.71249,52.05652
895086,329.7542,256.7316,58.76267,52.08056
895099.1,330.6086,257.0547,58.82837,52.11549
895115.8,331.9075,257.4057,58.92778,52.15339
895138,332.7747,257.5526,58.99382,52.16922
895148.8,334.3072,257.9388,59.10994,52.21079
895167.9,335.8648,258.2945,59.22715,52.24902
895184.1,337.8836,258.8415,59.37787,52.30768
895201.3,339.8808,259.427,59.52568,52.3703
895218.4,341.356,259.8498,59.63402,52.41541
895233.8,342.614,260.5351,59.72587,52.48832
895250.1,343.7725,261.4044,59.81001,52.58047
895267.7,344.8464,262.3323,59.88763,52.6784
895284.2,345.9857,263.9465,59.96957,52.84772
895302.6,347.0815,265.6066,60.04801,53.0205
895317.8,348.2111,267.6082,60.12848,53.22699
895333.9,349.3252,270.0529,60.20746,53.47651
895350.9,350.4399,272.0651,60.28611,53.67972
895366.7,351.7032,274.0308,60.37479,53.87635
895385.4,352.7753,275.3956,60.44967,54.0118
895401.1,353.769,276.5702,60.51876,54.12766
895417.7,354.8501,277.6108,60.5936,54.22977
895436.4,356.2536,278.7794,60.69024,54.34384
895454.5,357.7558,279.7391,60.79304,54.43706
895470.9,359.2013,280.7862,60.89134,54.53827
895487.4,360.5371,281.7875,60.98164,54.63459
895503.7,362.223,283.1937,61.09489,54.7691
895520.3,364.0593,284.9921,61.21732,54.93983
895536.6,365.9866,286.8961,61.3448,55.11901
895552.9,368.3928,289.5429,61.50252,55.36546
895571,370.5676,292.2202,61.6437,55.61166
895588.3,372.5951,294.4903,61.77418,55.81802
895604.5,374.6526,296.6961,61.90546,56.01647
895618,377.0457,299.103,62.05675,56.2307
895637.8,379.2992,301.2808,62.19785,56.4225
895654.9,380.815,303.0859,62.29202,56.58002
895670.2,382.2364,305.1526,62.3798,56.75877
895685.9,385.5667,307.9702,62.58347,56.99976
895705.9,386.4803,308.8615,62.63885,57.07535
895720,387.8477,309.2394,62.72136,57.10731
895733.9,388.7546,309.9725,62.77584,57.16914
895750.4,389.5359,309.8207,62.82261,57.15635
895767.4,390.5326,310.2678,62.88206,57.19399
895784.7,391.2447,310.8674,62.92438,57.24435
895799.9,391.3578,310.8648,62.93109,57.24413
895816.9,391.6338,311.4748,62.94746,57.29522
895833.9,391.7707,312.0323,62.95557,57.34178
895850.3,391.6801,312.5816,62.9502,57.38755
895868.1,391.557,313.1704,62.94291,57.43648
895883.8,391.442,313.9965,62.93608,57.50491
895900.9,391.3563,314.9115,62.931,57.58041
895917.4,391.3419,315.6155,62.93015,57.63829
895933.8,391.1023,316.2074,62.91593,57.6868
895952.1,390.8049,316.6219,62.89825,57.7207
895968.3,390.4816,316.8292,62.87902,57.73763
895985.1,390.0818,316.8879,62.85519,57.74242
896001.9,389.8644,317.0111,62.84223,57.75247
896017.7,389.5627,317.304,62.82421,57.77634
896036.2,389.0814,317.5817,62.79542,57.79895
896052.8,388.7731,317.806,62.77695,57.81718
896067.1,388.4444,318.2692,62.75723,57.85479
896084.5,388.1234,318.6699,62.73795,57.88726
896100.4,387.8857,319.0738,62.72366,57.91993
896117.7,387.7464,319.5018,62.71527,57.95448
896134.4,387.5996,319.8811,62.70643,57.98505
896151.2,387.371,320.1571,62.69265,58.00725
896168.9,387.1186,320.3153,62.67743,58.01997
896184.9,386.8767,320.3812,62.66282,58.02526
896201.7,386.6419,320.4537,62.64863,58.03109
896218.1,386.3105,320.6663,62.62857,58.04816
896234.6,385.8411,320.8465,62.60012,58.0626
896252,385.132,320.8567,62.55704,58.06342
896268.7,384.596,320.7013,62.52438,58.05096
896284.9,384.2094,320.4751,62.50079,58.03281
896301.7,383.837,320.1772,62.47803,58.00887
896318.4,383.4028,319.868,62.45144,57.98399
896334.3,382.9943,319.3856,62.42639,57.94511
896352,382.7384,318.9239,62.41068,57.90781
896368.5,382.5451,318.5737,62.3988,57.87947
896385.6,382.5351,318.4508,62.39818,57.86951
896402.3,382.5803,318.3188,62.40096,57.85882
896419.3,382.7144,318.1801,62.4092,57.84757
896435.6,382.9066,318.057,62.42101,57.83758
896452.5,383.1916,317.934,62.4385,57.82759
896469.3,383.6317,317.8468,62.46547,57.82051
896486,384.057,317.705,62.49148,57.80898
896503.6,384.4282,317.5107,62.51415,57.79317
896519.6,384.7652,317.1484,62.5347,57.76366
896535.1,385.0619,316.8856,62.55277,57.74223
896552.1,385.2488,316.5966,62.56414,57.71863
896568.9,385.4102,316.2769,62.57395,57.69249
896586.1,385.4434,315.9385,62.57597,57.66478
896601.6,385.5079,315.4998,62.57989,57.62878
896619.3,385.5433,315.1317,62.58204,57.59853
896634.8,385.6122,314.6452,62.58623,57.55846
896652.9,385.706,314.2837,62.59192,57.52864
896670.6,385.7599,313.9746,62.5952,57.5031
896688.6,385.7975,313.6588,62.59748,57.47697
896705,385.7584,313.3868,62.5951,57.45443
896721.9,385.5811,313.1771,62.58434,57.43703
896738.7,385.3677,312.9254,62.57137,57.41614
896754.6,385.1821,312.7604,62.56008,57.40242
896771.6,384.946,312.5468,62.54571,57.38465
896788.2,384.655,312.2703,62.52798,57.36163
896806.5,384.2498,311.8875,62.50326,57.32969
896824.6,383.9719,311.5362,62.48628,57.30035
896842.4,383.8062,311.213,62.47615,57.27331
896856.1,383.6055,310.8798,62.46386,57.24538
896872.4,383.2083,310.6673,62.43952,57.22755
896897.6,382.8314,310.3534,62.41639,57.20119
896914,382.5627,310.1301,62.39988,57.18241
896924.7,382.3125,309.975,62.38448,57.16936
896943.7,381.954,309.8212,62.3624,57.15639
896956.7,381.572,309.64,62.33883,57.14112
896974.6,381.2266,309.4206,62.31749,57.12261
896993.4,380.974,309.2153,62.30187,57.10527
897006.5,380.7066,309.0595,62.28531,57.09211
897023.6,380.3227,308.7158,62.2615,57.06301
897040.8,379.8504,308.3611,62.23216,57.03296
897058,379.4532,307.9594,62.20744,56.99884
897072.6,378.8464,307.4507,62.1696,56.95556
897089.6,378.0966,307.0152,62.12271,56.91843
897106.3,377.0876,306.3316,62.05938,56.85999
897123.9,375.169,304.8521,61.93823,56.73288
897141.6,373.1349,303.5175,61.80873,56.61749
897157.4,370.7625,301.9566,61.65629,56.48162
897173.2,367.5833,299.8987,61.44964,56.30099
897190.6,364.5135,297.879,61.24746,56.12205
897206.6,360.481,295.4913,60.97786,55.90833
897224,356.4501,293.3596,60.70373,55.71552
897240.5,352.1068,291.0339,60.40301,55.50295
897255.6,347.4618,288.3983,60.07515,55.25926
897271.9,341.8362,285.4175,59.66914,54.98
897289.6,336.1598,282.519,59.24925,54.70467
897305.9,330.5006,279.7534,58.82008,54.43844
897322.2,325.064,277.4936,58.39753,54.2183
897337.3,318.5489,275.3542,57.87746,54.00771
897354.8,312.3878,273.2012,57.37141,53.79359
897372.5,306.7926,271.3917,56.89942,53.61193
897388.8,301.2408,269.9658,56.41899,53.46767
897406.1,295.8373,267.9231,55.93945,53.25929
897424,291.5449,266.7901,55.54985,53.14283
897440.8,287.3083,265.8767,55.1576,53.04847
897458.2,283.666,265.0904,54.81407,52.96692
897473.3,280.3951,264.195,54.50052,52.87367
897490.6,277.3245,263.3753,54.20173,52.78796
897507.3,274.7614,262.7118,53.94896,52.71832
897523.9,272.1307,261.8533,53.68631,52.6279
897543,269.935,261.1264,53.46455,52.55104
897558.5,268.5167,260.4796,53.32006,52.48243
897573.2,267.2084,259.6747,53.1859,52.39673
897592.4,266.4132,259.0847,53.10395,52.33372
897607.2,265.9708,258.7849,53.05822,52.30162
897627.4,265.6012,258.6365,53.01993,52.28572
897641.3,265.2193,258.4482,52.98031,52.26553
897656.6,265.1903,258.1622,52.9773,52.23481
897672.3,265.2058,258.1809,52.97891,52.23683
897689,265.258,258.3665,52.98433,52.25675
897705.4,265.3401,258.529,52.99285,52.27419
897725.6,265.2735,258.472,52.98594,52.26808
897743.6,265.2057,258.5805,52.9789,52.27972
897759.4,265.2847,258.7202,52.9871,52.29469
897773.6,265.177,258.95,52.97592,52.3193
897791.3,264.8208,258.9943,52.93888,52.32404
897807.4,264.1847,258.855,52.8726,52.30913
897824.9,263.3511,258.4441,52.78542,52.26509
897841.8,262.5617,258.1624,52.70255,52.23484
897858.8,261.7999,257.9945,52.62226,52.21679
897873.8,260.8943,257.9018,52.52644,52.20682
897891.8,260.1496,257.7644,52.44734,52.19203
897908.3,259.4747,257.6482,52.37539,52.17952
897925.3,258.9479,257.5505,52.31908,52.16899
897939,258.3486,257.532,52.25483,52.167
897954.6,257.5701,257.617,52.1711,52.17616
897972.3,256.9275,257.6618,52.10175,52.18098
897989.3,256.4154,257.7597,52.04633,52.19152
898005.8,256.1793,257.8535,52.02073,52.20161
898023.3,256.1834,257.9941,52.02118,52.21675
898041.9,256.5817,258.193,52.06434,52.23812
898056.1,256.9021,258.2307,52.09901,52.24218
898072.3,257.2655,258.1953,52.13826,52.23837
898089.9,257.844,258.0558,52.20059,52.22338
898107.3,258.4724,258.0861,52.26812,52.22664
898123.3,259.1393,258.1597,52.33955,52.23455
898139.6,259.8103,258.2642,52.4112,52.24577
898155.8,260.2877,258.357,52.46202,52.25574
898177.3,260.4433,258.3677,52.47857,52.25689
898193.9,260.4622,258.3979,52.48058,52.26012
898211,260.4525,258.3837,52.47955,52.2586
898222.6,260.2338,258.3865,52.45629,52.25891
898239.8,259.99,258.4313,52.43034,52.26371
898259.4,259.5192,258.3195,52.38015,52.25171
898275.7,259.0845,258.2589,52.33369,52.2452
898292.4,258.7175,258.1243,52.2944,52.23074
898309,258.6785,258.1183,52.29022,52.23009
898323.1,258.8453,258.3358,52.30809,52.25346
898340.1,259.1211,258.6862,52.3376,52.29105
898356.6,259.8306,259.1542,52.41336,52.34115
898372.6,260.6841,259.7883,52.50414,52.40886
898391.1,261.7046,260.5518,52.61219,52.49009
898407.1,263.5098,261.6917,52.80204,52.61083
898424.3,265.529,262.6942,53.01245,52.71648
898441.6,268.1711,263.9439,53.2847,52.84745
898459,271.9261,265.6666,53.66574,53.02671
898475.6,275.6934,267.3326,54.04124,53.19868
898491,280.0884,269.3989,54.47088,53.41005
898510,284.5401,271.5231,54.89705,53.62517
898527.6,290.0446,273.9182,55.41183,53.86514
898544.6,295.4724,275.9061,55.90663,54.06224
898561.4,301.0239,277.8409,56.39997,54.25228
898577.6,306.7295,279.2247,56.89402,54.38715
898592.1,312.7296,280.5712,57.39986,54.51753
898611.6,318.529,281.6594,57.87585,54.6223
898628.1,324.0029,282.9299,58.31386,54.74393
898644.8,328.9243,284.2613,58.69862,54.87062
898664.1,334.2736,285.8059,59.1074,55.01661
898677.6,339.6093,286.4591,59.50566,55.07803
898693.6,344.8413,287.6748,59.88726,55.19183
898709.6,349.8809,288.8574,60.24672,55.30192
898725.7,355.2663,290.3415,60.62232,55.43922
898743.5,359.8269,291.9465,60.9337,55.58663
898759.4,364.597,293.7683,61.25299,55.75263
898778.1,368.1907,294.7111,61.48933,55.83798
898793.9,371.9472,295.2661,61.7326,55.88805
898811.6,376.0498,295.9782,61.99397,55.95211
898828,379.982,296.7331,62.24034,56.01978
898843.1,383.4845,297.6849,62.45645,56.10477
898861.3,386.4765,298.4405,62.63862,56.17197
898877.9,388.9431,299.0071,62.78714,56.22221
898892.9,391.36,299.3498,62.93122,56.25254
898908.3,393.8908,299.6113,63.08059,56.27564
898927,396.3532,300.2491,63.22447,56.33187
898944.3,398.1641,300.9339,63.32937,56.39207
898960.2,399.3231,301.6427,63.39611,56.45419
898977.9,400.8004,302.187,63.48073,56.50175
898990.9,401.563,302.5761,63.52422,56.53567
899012.8,402.2254,303.1007,63.56189,56.58131
899026.1,403.0654,303.7324,63.60951,56.63612
899046,403.5548,304.3501,63.63718,56.68957
899060.9,403.8839,305.0862,63.65576,56.75306
899077.1,404.2756,305.9125,63.67785,56.82408
899092.9,404.5743,306.6642,63.69466,56.88844
899110.4,404.5835,307.1766,63.69518,56.93221
899128.1,404.6979,307.8126,63.70161,56.98636
899145,404.7166,308.3325,63.70266,57.03052
899161.3,404.5299,308.5294,63.69216,57.04723
899178.2,404.2667,308.5727,63.67734,57.05089
899193.3,403.8591,308.3194,63.65437,57.02942
899210.8,403.7468,308.1768,63.64803,57.01731
899225.7,403.8135,308.065,63.65179,57.00782
899246.4,404.0115,308.0156,63.66296,57.00362
899261.1,404.2806,308.0335,63.67813,57.00515
899278.1,404.5493,308.1265,63.69325,57.01304
899293.4,404.7104,308.0759,63.70232,57.00874
899310.5,404.8243,308.0131,63.70872,57.00341
899326.8,405.0466,307.9667,63.7212,56.99947
899345.4,405.246,307.9759,63.7324,57.00025
899360.6,405.4121,307.9397,63.74171,56.99717
899377.4,405.566,307.8443,63.75034,56.98906
899394.8,405.5594,307.7198,63.74997,56.97847
899411.4,405.4643,307.5375,63.74464,56.96296
899428.4,405.3577,307.4183,63.73867,56.9528
899445.6,405.2106,307.2296,63.73042,56.93673
899460.8,405.095,306.9886,63.72393,56.91616
899477.9,405.0748,306.8297,63.72279,56.9026
899494.3,405.0067,306.6948,63.71897,56.89106
899510.6,404.9458,306.412,63.71555,56.86687
899527.7,404.6856,306.0705,63.70092,56.83762
899545.6,404.3271,305.8544,63.68074,56.81909
899560.9,404.15,305.6772,63.67077,56.80388
899578.7,404.0598,305.6935,63.66568,56.80528
899594.7,404.046,305.6769,63.6649,56.80385
899612.6,404.1799,305.6423,63.67245,56.80088
899630,404.368,305.6039,63.68304,56.79758
899646,404.6044,305.4229,63.69635,56.78203
899661.7,405.0008,305.184,63.71863,56.76148
899677.9,405.3375,304.8917,63.73753,56.7363
899693.9,405.787,304.5192,63.76272,56.70417
899712.2,406.2248,304.3029,63.78721,56.68548
899728.3,406.6162,304.1288,63.80907,56.67044
899746.6,406.8443,303.9733,63.8218,56.65698
899762.9,407.042,303.8746,63.83282,56.64844
899780.1,407.123,303.7517,63.83733,56.63779
899797.3,407.1695,303.6617,63.83992,56.62999
899812.6,407.1319,303.704,63.83782,56.63366
899831.1,407.0824,303.8257,63.83507,56.6442
899847.3,406.9595,303.8749,63.82822,56.64847
899862.8,406.8094,303.9808,63.81985,56.65763
899882.3,406.5922,304.1086,63.80774,56.66869
899897.1,406.2747,304.2941,63.79,56.68473
899911.6,405.9637,304.4467,63.77261,56.69791
899939.3,405.5476,304.6488,63.74931,56.71535
899953.4,405.4001,304.7921,63.74104,56.72771
899965.6,405.291,304.979,63.73493,56.74383
899979.9,405.3599,305.1685,63.73879,56.76014
899994.8,405.3882,305.3053,63.74038,56.77191
900012.9,405.3989,305.216,63.74097,56.76423
900030.4,405.4236,304.9118,63.74236,56.73803
900048.2,405.531,304.6125,63.74838,56.71223
900064.6,405.637,304.5565,63.75432,56.70739
900079.9,405.9979,304.4406,63.77452,56.69739
900097.5,406.3419,304.4179,63.79375,56.69542
900113.1,406.6505,304.4146,63.81099,56.69513
900129.4,406.8335,304.3027,63.8212,56.68547
900148.6,407.0817,304.2327,63.83503,56.67942
900164.3,407.3186,304.1646,63.84822,56.67353
900181.7,407.3679,303.9561,63.85096,56.6555
900196.6,407.2103,303.6284,63.84219,56.62711
900213.6,406.9386,303.2517,63.82705,56.59443
900234.4,406.6686,303.0624,63.812,56.57798
900247.9,406.5203,303.0728,63.80372,56.57888
900262.8,406.3336,302.922,63.79329,56.56577
900280.4,406.1017,302.7345,63.78033,56.54945
900300.6,405.6259,302.4728,63.7537,56.52667
900314.9,405.2365,302.336,63.73186,56.51474
900331.1,404.9672,302.2789,63.71675,56.50976
900349.9,404.883,302.2634,63.71202,56.50841
900365.9,404.8046,302.1974,63.70761,56.50265
900379.9,404.7702,302.5315,63.70567,56.53178
900395.9,404.539,302.4943,63.69267,56.52854
900413.8,404.4763,302.4577,63.68915,56.52535
900430.2,404.3719,302.4373,63.68327,56.52357
900446.8,404.2843,302.3836,63.67833,56.51889
900463.9,404.2467,302.2785,63.67622,56.50973
900481.7,404.1269,302.014,63.66946,56.48664
900498,404.0651,301.6831,63.66598,56.45772
900514.4,403.825,300.6019,63.65244,56.36292
900531.9,403.52,298.9628,63.63522,56.21829
900553.1,402.8495,295.9387,63.59729,55.94856
900566.8,402.2756,293.2561,63.56474,55.7061
900581.9,401.3403,289.7941,63.51154,55.38869
900597.6,399.9692,284.9359,63.43319,54.93452
900614.4,399.1544,280.6986,63.38642,54.52982
900631.5,398.5762,276.7987,63.35314,54.15013
900647.6,397.5941,273.0131,63.29644,53.77477
900664.7,396.4756,270.1496,63.23158,53.48632
900680.6,395.0385,266.5056,63.14783,53.11349
900697.3,393.9033,262.7486,63.08133,52.7222
900714,392.9995,259.003,63.02816,52.32497
900730.7,391.97,255.869,62.96737,51.98704
900747.3,390.5978,252.8786,62.88594,51.65976
900764.4,388.64,249.3635,62.76896,51.26892
900782.8,386.7606,246.1426,62.6558,50.90486
900799.6,384.9967,242.8334,62.54881,50.52479
900815.8,383.1509,239.5837,62.436,50.1455
900831.6,381.7186,236.8619,62.34788,49.82312
900849.7,379.2457,234.1493,62.19451,49.49751
900865.3,377.2596,231.7451,62.07019,49.20524
900881,374.6545,228.6377,61.90558,48.82231
900899.6,372.1622,226.0791,61.74641,48.50254
900914.9,369.567,223.1971,61.57891,48.13747
900933.9,367.0589,220.7786,61.41529,47.82704
900948.9,364.0492,218.4838,61.21665,47.52902
900966.2,361.6689,216.6641,61.05775,47.29027
900982.4,358.6356,214.772,60.85294,47.03972
900999.5,355.0402,212.77,60.60672,46.77202
901014.1,351.3366,210.5641,60.3491,46.47394
901030.1,347.8215,208.655,60.10077,46.2133
901058.9,343.6545,206.5722,59.80146,45.9261
901073.4,342.225,205.8423,59.69752,45.82474
901081.9,340.1702,204.7783,59.54699,45.67632
901096.9,338.0078,203.7473,59.3871,45.53176
901112.8,336.1833,203.0278,59.25101,45.43044
901129.8,334.3943,202.0843,59.11651,45.297
901148.4,332.5421,200.9445,58.97614,45.13497
901166.3,330.6093,199.7295,58.82843,44.96123
901182.2,328.6469,198.7173,58.67715,44.81567
901199.4,326.1979,197.6071,58.48651,44.65518
901216,324.3359,196.7665,58.34016,44.53307
901230.2,322.557,195.9101,58.1992,44.40814
901247.8,320.9109,195.118,58.06776,44.2921
901266.7,319.5046,194.8165,57.95471,44.24782
901281.3,317.8382,194.6242,57.81981,44.21954
901299.1,316.2616,194.5002,57.69124,44.20129
901314.6,314.8172,194.8929,57.57264,44.25904
901331.1,313.5173,194.941,57.46525,44.26611
901348.8,312.5341,195.1925,57.3836,44.30304
901365.5,311.3107,195.3858,57.28148,44.33139
901381.5,309.5156,195.4587,57.13063,44.34207
901398.3,307.483,195.1328,56.95831,44.29427
901414.5,305.6664,194.3014,56.80295,44.172
901433.1,303.7807,193.0187,56.6403,43.98234
901458.4,301.4991,191.5467,56.44162,43.7632
901469.1,299.806,190.5948,56.29283,43.62064
901481,297.0941,188.8748,56.05206,43.36129
901497.9,294.6761,187.2767,55.83482,43.11832
901513.1,292.2368,185.643,55.61318,42.86794
901529.8,289.7001,183.7104,55.38,42.5691
901550.5,288.1563,182.5173,55.23673,42.38316
901566.9,286.4028,180.7411,55.07274,42.1043
901582.6,284.4008,178.5021,54.88386,41.74924
901599.1,282.363,176.4053,54.68975,41.41315
901614.8,280.2963,173.717,54.49098,40.97709
901631.6,278.4883,170.8438,54.31549,40.50458
901649.1,276.6356,167.0057,54.13409,39.86285
901666.2,274.7734,163.555,53.95015,39.27544
901682.1,272.8517,160.3076,53.75863,38.71349
901699.1,271.5669,157.8353,53.62959,38.27968
901714.9,270.229,154.8367,53.49438,37.74644
901734.3,269.2563,152.3543,53.39552,37.29912
901748.8,268.3485,149.6154,53.30285,36.79931
901766.1,267.4109,147.0154,53.20672,36.31876
901784.5,266.4839,144.5863,53.11124,35.86435
901801.3,265.6399,142.381,53.02395,35.44726
901817.8,264.9225,140.6859,52.94947,35.12368
901833.2,264.5247,139.3001,52.90805,34.85724
901850.9,264.0975,138.1426,52.86349,34.63334
901867.1,263.75,137.5154,52.82718,34.51151
901885.8,263.597,137.0065,52.81118,34.41241
901902.9,263.4781,136.6534,52.79872,34.34351
901918.5,263.2015,136.7037,52.76974,34.35332
901934.4,262.5355,136.5876,52.69979,34.33065
901952.8,261.6637,136.1381,52.60788,34.24275
901971.1,260.4481,135.187,52.47908,34.05613
901984.3,259.1001,134.1491,52.33536,33.85156
902002.7,257.5709,133.7213,52.17119,33.76693
902018.6,256.3246,133.6926,52.03648,33.76126
902035.2,254.8762,134.7522,51.87891,33.97055
902051.8,253.6907,135.608,51.74911,34.13885
902066.4,252.1685,137.0269,51.58134,34.41639
902083.4,250.4259,138.0395,51.38776,34.61333
902100.2,248.176,139.1872,51.13536,34.83544
902116.4,245.6959,139.8311,50.85391,34.95953
902132.8,243.12,140.189,50.55795,35.02835
