Time Stamp(ms),Intersection,,Angle,
,x,y,x,y
868375.1,318.3112,245.2466,57.8582,50.80256
868393.1,318.361,245.1578,57.86224,50.7924
868409.8,318.4449,245.1263,57.86904,50.7888
868427.2,318.4944,245.15,57.87304,50.7915
868444.5,318.5093,245.1569,57.87425,50.79229
868460.9,318.5292,245.1662,57.87587,50.79335
868477.8,318.5728,245.1561,57.8794,50.79221
868492.3,318.5919,245.1211,57.88095,50.78819
868518.5,318.5509,245.0988,57.87763,50.78564
868531.7,318.6075,245.1566,57.88221,50.79226
868544.8,318.6774,245.1362,57.88787,50.78992
868561.3,318.7046,245.0501,57.89007,50.78006
868578.1,318.7282,245.0658,57.89198,50.78187
868593.3,318.7436,245.132,57.89322,50.78945
868610.6,318.782,245.2127,57.89633,50.79868
868628.4,318.8362,245.2023,57.90072,50.79749
868645.9,318.8512,245.1084,57.90193,50.78674
868659.7,318.8431,245.0657,57.90128,50.78185
868677.5,318.7558,245.0464,57.89421,50.77965
868694.9,318.6682,245.0565,57.88712,50.7808
868713.3,318.6688,244.9634,57.88717,50.77013
868726.7,318.6469,244.8209,57.8854,50.7538
868745.5,318.5443,244.6271,57.87709,50.73157
868759.1,318.4185,244.369,57.86689,50.70192
868776.1,318.254,243.8832,57.85356,50.64603
868797.5,318.1322,243.398,57.84368,50.59008
868809.4,318.0276,242.7188,57.83519,50.51151
868826.4,317.7364,241.8369,57.81153,50.40912
868846.3,317.2778,240.942,57.77421,50.30478
868862.8,316.7656,239.9054,57.73243,50.18332
868877.9,316.3116,238.507,57.69533,50.01849
868893.8,315.9977,237.32,57.66963,49.87768
868912.3,315.6287,235.9425,57.63936,49.71325
868929.3,315.165,234.8276,57.60127,49.57934
868946.4,314.6917,233.6008,57.5623,49.43113
868961.5,314.0561,232.0306,57.50983,49.24014
868977.6,313.4355,230.2634,57.45847,49.02338
868993.3,312.0471,228.1786,57.34302,48.76523
869011.1,311.2482,227.3311,57.27626,48.65953
869028.2,310.6402,226.3022,57.22528,48.53058
869045.7,309.9201,225.1215,57.16473,48.38181
869062.1,309.2005,223.6977,57.10402,48.20125
869079.1,308.5699,222.4773,57.05066,48.04547
869094.6,307.6687,221.0485,56.97412,47.86187
869111,306.7688,219.785,56.89738,47.69842
869128.1,305.915,218.3796,56.82429,47.51542
869144.8,305.2072,217.2308,56.76348,47.36485
869161.9,304.8513,216.2868,56.73281,47.2405
869179.2,304.4772,215.3217,56.70054,47.11275
869195.1,303.7578,213.996,56.63832,46.93627
869212.8,303.3311,212.9626,56.60132,46.79789
869228.5,303.0417,211.6722,56.57618,46.62408
869246.4,302.7657,210.2613,56.55217,46.43276
869263.2,302.8445,209.3779,56.55903,46.31228
869279.5,302.8279,208.2916,56.55759,46.16341
869296.9,302.9447,207.4996,56.56775,46.05435
869312.2,302.2986,205.8005,56.51148,45.81892
869329.1,302.8166,205.4734,56.5566,45.77337
869345.6,303.0224,204.873,56.5745,45.68958
869361.6,303.2982,204.6248,56.59846,45.65485
869378.9,303.4934,203.9953,56.61541,45.5666
869393,303.6649,203.8906,56.63027,45.55191
869412.3,303.6433,203.6475,56.6284,45.51773
869428.6,303.626,203.2589,56.6269,45.46302
869446.3,303.6052,203.1143,56.6251,45.44264
869462.1,303.5278,202.9254,56.61839,45.41599
869478.5,303.4357,202.8096,56.61039,45.39963
869495.4,303.2726,202.7888,56.59624,45.3967
869511.1,303.0301,202.8648,56.57517,45.40742
869527.6,302.7469,203.0077,56.55054,45.4276
869544.9,302.3664,203.4315,56.51739,45.48733
869560.8,301.9888,203.841,56.48444,45.54493
869578,301.6052,204.1974,56.4509,45.59497
869593.2,301.253,204.2817,56.42006,45.60679
869610.3,300.9547,204.1386,56.3939,45.58673
869627.4,300.8003,203.8455,56.38035,45.54557
869645,300.7716,203.6361,56.37783,45.51613
869661.2,300.9251,203.5068,56.39131,45.49793
869677.4,301.1203,203.4391,56.40843,45.48841
869693.9,301.3603,203.3053,56.42946,45.46955
869713.1,301.513,203.1384,56.44284,45.44603
869729.2,301.7217,202.9321,56.46109,45.41693
869745.1,301.916,202.675,56.47808,45.38062
869762.2,301.9821,202.3938,56.48386,45.34084
869779.6,302.0122,202.1164,56.48648,45.30156
869793.9,302.0745,201.9021,56.49192,45.27117
869813.1,302.1781,201.7185,56.50097,45.24511
869831.7,302.1935,201.4548,56.50231,45.20762
869852.4,302.0886,201.2231,56.49315,45.17467
869871.6,301.8745,200.9984,56.47446,45.14265
869885.1,301.6834,200.7731,56.45774,45.11052
869902.4,301.5625,200.5548,56.44717,45.07936
869914.6,301.5622,200.3272,56.44714,45.04683
869930.1,301.4159,199.9933,56.43433,44.99905
869952.1,301.177,199.8005,56.4134,44.97141
869963.6,300.8004,199.4657,56.38036,44.92336
869984.5,300.5903,199.0016,56.3619,44.85663
870001.2,300.5236,198.5377,56.35603,44.78977
870014.1,300.4854,197.9478,56.35267,44.70453
870030.6,300.3111,197.496,56.33733,44.63908
870049.6,300.2138,197.041,56.32877,44.573
870065.1,300.233,196.738,56.33046,44.52893
870083.1,300.3519,196.4832,56.34093,44.49181
870097.9,300.5831,196.1846,56.36126,44.44823
870114.8,300.7641,195.8971,56.37717,44.40623
870132.4,300.9763,195.6623,56.3958,44.37188
870149.3,301.3173,195.4941,56.4257,44.34726
870168.3,301.6827,195.3917,56.45768,44.33224
870182.7,301.9859,195.2103,56.48418,44.30564
870199.1,302.3976,195.1415,56.52011,44.29556
870215,302.7874,195.1017,56.55406,44.28971
870231.9,303.1737,195.1848,56.58765,44.3019
870248.8,303.527,195.4127,56.61831,44.33533
870263.9,303.8423,195.6415,56.64564,44.36884
870280.5,304.1223,195.7808,56.66987,44.38923
870297.4,304.4864,195.8346,56.70134,44.3971
870314.1,304.7617,195.9014,56.7251,44.40687
870330.8,305.1009,195.9477,56.75433,44.41363
870347.2,305.4572,195.9332,56.78498,44.4115
870362.9,305.9806,195.9029,56.82991,44.40709
870381.9,306.385,195.8413,56.86456,44.39807
870398.1,306.8621,195.8702,56.90536,44.4023
870413,307.3741,195.9106,56.94904,44.40821
870430.6,307.8369,195.9639,56.98843,44.416
870447.4,308.3376,196.0392,57.03096,44.42701
870463.5,308.7713,196.131,57.06771,44.44041
870480.1,309.2186,196.3322,57.10555,44.46977
870498.5,309.5611,196.4574,57.13446,44.48803
870513.6,309.7478,196.5902,57.15021,44.5074
870530.9,309.8609,196.5898,57.15974,44.50734
870547.9,310.1485,196.5607,57.18396,44.5031
870587.6,310.2498,196.5362,57.19248,44.49952
870603.8,310.1077,196.5372,57.18053,44.49968
870620.7,309.8918,196.7093,57.16235,44.52474
870634,309.8118,196.9551,57.1556,44.56052
870650.1,309.7076,197.3638,57.14682,44.61989
870665.2,309.7457,197.5082,57.15004,44.64084
870678.3,309.8561,197.5074,57.15934,44.64074
870690.7,309.9797,197.4293,57.16975,44.62939
870701.5,310.257,196.9395,57.19308,44.55824
870716.3,310.5228,196.4983,57.21542,44.494
870732.6,310.8239,196.0491,57.24069,44.42844
870755.7,311.0988,195.7116,57.26374,44.3791
870766.4,311.6082,195.6849,57.30637,44.3752
870784.1,312.4341,195.4378,57.37527,44.339
870802.1,313.0474,195.039,57.42627,44.2805
870817,313.6396,194.7767,57.47538,44.24195
870834.9,314.2642,194.3943,57.52703,44.18569
870851.2,314.8659,194.0399,57.57666,44.13343
870868.2,315.5966,193.5615,57.63673,44.06275
870886,316.5141,193.0794,57.71189,43.99135
870907.9,317.1782,192.8086,57.76609,43.95116
870922.9,317.6656,192.5197,57.80577,43.90825
870935.6,318.0408,192.2163,57.83626,43.86309
870952.9,318.1385,191.8603,57.84418,43.81003
870967.9,318.1161,191.5423,57.84238,43.76254
870982.8,318.3233,191.3244,57.85918,43.72997
871000.4,318.7412,191.0404,57.89303,43.68746
871017.4,319.4526,190.6565,57.95051,43.62989
871033.2,320.1997,190.2566,58.01068,43.56981
871050.1,321.2225,189.8354,58.09273,43.50641
871068.8,322.049,189.7135,58.15875,43.48803
871084.1,322.9016,189.6351,58.2266,43.4762
871101.2,323.8427,189.7046,58.30119,43.48669
871119.3,324.68,189.8611,58.3673,43.51027
871135.6,325.5635,190.078,58.43678,43.54294
871153.2,326.3525,190.1809,58.4986,43.55843
871170.1,327.1866,190.3447,58.56372,43.58306
871186.1,327.9993,190.5155,58.62694,43.60872
871200.6,328.8748,190.7267,58.69479,43.64042
871218.1,329.6203,190.8316,58.75235,43.65616
871233.9,330.407,190.9598,58.81289,43.67538
871250.9,331.2325,191.0119,58.87619,43.68319
871268.4,332.0744,191.0306,58.94051,43.68599
871284.9,332.871,191.0013,59.00114,43.68161
871302.1,333.7177,190.9079,59.06537,43.6676
871319.8,334.4844,190.8094,59.12331,43.65283
871335.4,335.3563,190.7028,59.18897,43.63684
871352.5,336.2671,190.5947,59.25729,43.62062
871370.9,337.0359,190.4619,59.31474,43.60067
871387.6,337.6988,190.1976,59.36412,43.56094
871418.1,338.7556,189.7085,59.44256,43.48728
871433.5,339.3282,189.5453,59.48491,43.46266
871448.1,339.8017,189.4334,59.51984,43.44576
871459.3,340.1158,189.3614,59.54298,43.43488
871469,340.6486,189.2803,59.58215,43.42263
871487.8,341.1131,189.2193,59.61623,43.41341
871503.6,341.5811,189.1128,59.6505,43.3973
871520.7,342.0611,189.0105,59.68556,43.38183
871537.3,342.4059,188.9409,59.71071,43.3713
871553.1,342.8218,188.7704,59.74099,43.34547
871570.6,343.3029,188.6138,59.77596,43.32175
871588,343.7882,188.3958,59.81114,43.28867
871603.9,344.2573,188.206,59.84509,43.25984
871622.1,344.5021,188.1349,59.86278,43.24905
871638.7,344.6807,187.9829,59.87567,43.22593
871654.4,344.0002,187.0667,59.82649,43.08625
871672.3,344.3768,187.0304,59.85373,43.0807
871688.1,344.8159,186.7662,59.88542,43.04031
871705.4,345.0107,186.4245,59.89946,42.98797
871722.7,345.0923,186.0857,59.90535,42.93599
871738.8,345.0988,185.8304,59.90582,42.89677
871756,345.0492,185.7178,59.90224,42.87945
871773.1,344.9981,185.5454,59.89856,42.85291
871790.4,344.7758,185.4638,59.88253,42.84034
871807.4,344.5595,185.3525,59.86692,42.8232
871822.9,344.2941,185.2731,59.84775,42.81096
871839.3,344.0054,185.2012,59.82687,42.79987
871854.5,343.6865,185.1815,59.80378,42.79684
871873,343.3628,185.1255,59.7803,42.78819
871888.5,342.926,184.9915,59.74857,42.76752
871906.9,342.7,184.8758,59.73213,42.74964
871922.3,342.4803,184.7066,59.71613,42.7235
871938.3,342.1726,184.5316,59.6937,42.69642
871953.6,341.8008,184.4143,59.66655,42.67828
871971.5,341.4365,184.2409,59.63992,42.65141
871987.3,340.7093,183.5184,59.58661,42.53925
872004,340.422,183.3909,59.56551,42.5194
872021.4,340.1972,183.607,59.54897,42.55302
872037.4,339.2345,183.1494,59.47798,42.4818
872053.6,338.4408,183.0128,59.41923,42.46051
872070.2,337.8065,183.2035,59.37214,42.49023
872089.9,337.0986,182.9057,59.31942,42.4438
872103.5,336.7359,183.2867,59.29234,42.50319
872120.1,335.8926,183.4095,59.22923,42.5223
872137.1,335.1124,183.4899,59.17062,42.53481
872154.9,334.3485,183.5377,59.11306,42.54224
872172.4,333.7382,183.5431,59.06691,42.54309
872188.7,333.1359,183.5329,59.02126,42.5415
872203.2,332.5665,183.6093,58.97799,42.55338
872222.1,331.9727,183.6065,58.93275,42.55295
872238.3,331.4644,183.5672,58.89393,42.54683
872254,331.0576,183.5078,58.8628,42.5376
872270.9,330.7183,183.4907,58.83679,42.53493
872291.1,330.2944,183.642,58.80424,42.55846
872307.2,329.7486,183.7862,58.76224,42.58086
872324.1,329.2644,183.9269,58.7249,42.60271
872339.7,328.8272,183.9116,58.69111,42.60034
872353.8,328.4975,183.8772,58.66558,42.595
872377,328.165,183.8517,58.6398,42.59105
872389.4,327.6992,183.9416,58.60362,42.605
872406.1,327.2551,184,58.56907,42.61406
872422.1,326.8119,184.0381,58.5345,42.61997
872439,326.4815,184.0334,58.50869,42.61924
872454.5,326.0506,184.0318,58.47497,42.619
872471.6,325.5959,183.8969,58.43933,42.59806
872488.6,324.9615,183.8537,58.38947,42.59135
872505.5,324.4344,183.697,58.34793,42.567
872521.8,323.877,183.5454,58.30391,42.54345
872542,323.3821,183.4702,58.26472,42.53174
872558.6,322.7831,183.3828,58.21718,42.51815
872574,322.1244,183.2826,58.16475,42.50255
872589.9,321.4716,183.2141,58.11264,42.49189
872608.3,320.8799,183.1756,58.06528,42.48589
872623.5,320.2625,183.1927,58.01573,42.48854
872640.2,319.6153,183.2156,57.96363,42.49212
872655.4,318.94,183.3349,57.90911,42.5107
872672.2,318.2116,183.4104,57.85012,42.52245
872689.8,317.6116,183.5399,57.80138,42.54258
872707.1,317.0411,183.6568,57.75491,42.56076
872723.3,316.455,183.7957,57.70706,42.58235
872741.1,315.9773,183.8978,57.66795,42.59819
872755.6,315.3033,184.0101,57.61264,42.61563
872775.6,314.7461,184.1069,57.56678,42.63064
872792.9,314.3309,184.108,57.53254,42.63082
872807.2,313.9417,184.2377,57.50038,42.65091
872823.4,313.5782,184.4334,57.47029,42.68123
872839.5,313.1627,184.7023,57.43584,42.72283
872857.1,312.7289,184.961,57.3998,42.7628
872872.4,312.295,185.1224,57.36368,42.78771
872889.9,311.7256,185.2176,57.31618,42.8024
872910.2,311.3724,185.3023,57.28665,42.81546
872923.4,310.7534,185.39,57.23478,42.82898
872940.8,310.1494,185.4708,57.18403,42.84143
872957.1,309.6328,185.5356,57.14052,42.85141
872971.9,309.1,185.6242,57.09553,42.86504
872989.7,308.5767,185.6653,57.05123,42.87137
873006.1,307.9556,185.6041,56.99852,42.86194
873023.8,307.3368,185.4678,56.94586,42.84096
873044,306.6932,185.3225,56.89093,42.81857
873059.3,306.1422,185.1839,56.84377,42.79721
873076.3,305.6998,185.1557,56.80582,42.79285
873092.9,305.3041,185.1252,56.77181,42.78815
873109.3,304.9422,185.0319,56.74066,42.77375
873126.8,304.6747,184.9186,56.71759,42.75626
873142.1,304.5614,184.8642,56.70781,42.74786
873160.1,304.4243,184.8298,56.69598,42.74254
873178.4,304.4053,184.8671,56.69434,42.7483
873193.8,304.4542,184.9046,56.69855,42.75409
873211,303.9878,184.6588,56.65824,42.7161
873231.1,304.2428,184.3793,56.68029,42.67285
873244.6,304.6197,184.689,56.71284,42.72078
873262.1,304.9793,184.5247,56.74385,42.69535
873277.9,305.1712,184.4752,56.76037,42.6877
873292.8,305.5908,184.3279,56.79646,42.66488
873313.6,305.8313,184.2946,56.81711,42.65973
873324.8,306.1408,184.2133,56.84365,42.64714
873343.4,306.2903,184.1234,56.85645,42.6332
873363.8,306.3871,184.0596,56.86475,42.62331
873385.1,306.4065,183.9373,56.8664,42.60433
873396.3,306.4475,183.9263,56.86992,42.60262
873409.9,306.5616,183.8867,56.87968,42.59647
873426.4,306.6798,183.9225,56.88978,42.60204
873444.5,306.7245,183.9842,56.8936,42.61161
873461.3,306.6843,184.1084,56.89017,42.63087
873477.9,306.6367,184.1087,56.8861,42.63091
873493.7,306.6315,184.1633,56.88565,42.63939
873512.4,306.6703,184.1724,56.88897,42.6408
873528.6,306.7217,184.2167,56.89336,42.64766
873544.4,306.6247,184.3963,56.88507,42.67548
873561.6,306.422,184.6033,56.86773,42.70753
873581.3,306.1498,184.8613,56.84442,42.74741
873595.1,305.9885,185.0242,56.83059,42.77256
873609.9,305.8931,185.1221,56.82241,42.78768
873626.1,305.7087,185.0705,56.80659,42.77971
873643.9,305.5023,184.9884,56.78886,42.76704
873663.9,305.3227,184.8947,56.77341,42.75257
873678.4,305.3236,184.8353,56.77349,42.74339
873693.1,305.4407,184.8424,56.78356,42.74449
873711.6,305.6064,184.8965,56.79779,42.75285
873729.2,305.7798,184.9254,56.81268,42.7573
873745.3,305.9771,184.9277,56.82962,42.75766
873762,306.2696,184.8081,56.85468,42.73919
873779.1,306.4083,184.736,56.86655,42.72805
873794.3,306.4493,184.7275,56.87006,42.72673
873811.6,306.5726,184.7321,56.88061,42.72743
873831,306.6547,184.6849,56.88763,42.72013
873846.4,306.8182,184.4619,56.90161,42.68563
873862.7,306.8992,184.186,56.90852,42.6429
873879.3,306.9537,183.8873,56.91318,42.59656
873894.1,306.9952,183.6518,56.91673,42.55999
873910.4,307.1252,183.5336,56.92782,42.54161
873927.3,307.3842,183.3404,56.9499,42.51154
873945.5,307.6848,183.2778,56.97549,42.5018
873963.6,307.9573,183.1757,56.99867,42.4859
873978.9,308.1274,183.1151,57.01311,42.47646
873994.6,308.3275,183.0749,57.03011,42.47019
874011.9,308.5976,182.9519,57.053,42.45102
874028,308.711,182.7841,57.06261,42.42483
874045.5,308.7747,182.6559,57.068,42.4048
874064.4,308.8119,182.5472,57.07115,42.38783
874080.1,308.8807,182.4966,57.07697,42.37991
874096.3,308.9944,182.3729,57.0866,42.36058
874111.2,309.2043,182.2095,57.10434,42.33501
874129.7,309.3687,182.0479,57.11823,42.3097
874144.8,309.5133,181.9719,57.13043,42.29779
874162.9,309.7115,181.8895,57.14715,42.28487
874181.6,310.0154,181.7171,57.17275,42.25783
874198.5,310.2318,181.5996,57.19097,42.23939
874211.5,310.3434,181.3694,57.20035,42.20321
874230.9,310.4214,181.1458,57.20691,42.16806
874247.9,310.605,180.7727,57.22233,42.10928
874266.2,310.7948,180.5323,57.23826,42.07135
874278.7,310.9657,180.2091,57.25259,42.02029
874294.2,311.0479,179.8033,57.25948,41.95607
874312.3,311.0296,179.469,57.25795,41.90306
874329.1,311.0764,179.0718,57.26187,41.83996
874346.3,311.2531,178.7208,57.27666,41.7841
874366.4,311.3826,178.4794,57.28751,41.74562
874378.2,311.5579,178.3143,57.30217,41.71929
874397.4,311.6259,178.164,57.30785,41.69529
874414.4,311.6372,178.0145,57.3088,41.67139
874432.1,311.7155,177.8359,57.31534,41.64284
874447.7,311.8195,177.681,57.32402,41.61805
874466.2,311.6681,177.4505,57.31137,41.58112
874481.1,311.5559,177.352,57.30199,41.56533
874498.4,311.335,177.3249,57.28352,41.56097
874511.1,311.3512,177.3492,57.28488,41.56488
874531.9,311.5476,177.4565,57.3013,41.58208
874548.6,311.8123,177.5237,57.32342,41.59285
874566.2,311.9099,177.5755,57.33157,41.60116
874578.3,312.0081,177.5565,57.33977,41.59812
874594.9,312.1287,177.3997,57.34982,41.57297
874611.4,312.3423,177.2589,57.36763,41.5504
874628.3,312.6436,177.2592,57.39271,41.55043
874645.8,312.9386,177.2767,57.41723,41.55326
874662.4,313.1711,177.2223,57.43653,41.54451
874678.2,313.3494,177.2541,57.45133,41.54962
874695.1,313.5626,177.162,57.469,41.53484
874712.6,313.7408,177.1768,57.48375,41.53722
874729,313.9409,177.2825,57.50031,41.55419
874745.6,314.1391,177.3916,57.51669,41.57167
874764.3,314.3299,177.4514,57.53245,41.58127
874779.9,314.5473,177.516,57.5504,41.59162
874794.6,314.9252,177.75,57.58154,41.6291
874817.2,315.3897,177.9059,57.61974,41.65403
874831.6,316.1344,177.9374,57.68082,41.65908
874848.1,316.8436,178.0829,57.7388,41.68233
874863.5,317.4798,178.1697,57.79066,41.6962
874879.6,318.1342,178.1759,57.84384,41.6972
874895.6,318.7415,178.2461,57.89305,41.7084
874925.8,319.5944,178.1865,57.96195,41.69889
874933.6,320.2622,178.0318,58.01571,41.67417
874945.7,321.2786,177.7366,58.09721,41.62695
874967.4,322.3565,177.4816,58.18325,41.5861
874984.3,323.2098,177.373,58.25106,41.5687
875001.3,324.1008,177.4917,58.3216,41.58772
875021.5,324.8029,177.5401,58.37698,41.59548
875032.8,325.4575,177.583,58.42846,41.60236
875048.1,326.3477,177.744,58.49823,41.62813
875066.6,327.1081,178.0219,58.55761,41.67259
875086.2,327.8694,178.3092,58.61685,41.71847
875100.5,328.8927,178.5655,58.69617,41.75936
875116.8,329.8942,178.7294,58.77345,41.78548
875133.1,330.7493,178.815,58.83917,41.7991
875150.4,331.745,178.7959,58.91537,41.79605
875168.4,332.7615,178.7564,58.99283,41.78977
875184.6,333.8389,178.7345,59.07454,41.78628
875200.8,334.9581,178.7086,59.15901,41.78215
875217.5,335.7856,178.6929,59.2212,41.77965
875232.8,336.61,178.6931,59.28294,41.7797
875249.9,337.4466,178.6585,59.34536,41.77417
875267.5,338.1759,178.6474,59.39958,41.7724
875282,338.8423,178.6604,59.44898,41.77448
875299.9,339.2185,178.7221,59.4768,41.78431
875315.1,339.6854,178.7635,59.51127,41.79091
875332.5,340.058,178.7987,59.53873,41.79651
875350.9,340.2906,178.8306,59.55584,41.80158
875365.8,340.4784,178.9118,59.56965,41.81451
875384.8,340.5211,178.9947,59.57278,41.8277
875399.8,340.4676,179.0389,59.56885,41.83473
875417.8,340.4209,179.0934,59.56543,41.8434
875432.8,340.4001,179.1927,59.5639,41.85919
875451.4,340.2724,179.4689,59.5545,41.90304
875470.8,340.0742,179.6612,59.53992,41.93354
875485.2,339.8817,179.849,59.52574,41.9633
875501.8,339.8467,179.9645,59.52316,41.9816
875516.8,339.8893,180.0003,59.5263,41.98726
875532.3,340.0522,180.1228,59.5383,42.00665
875550.7,340.1761,180.1528,59.54742,42.01139
875567.3,340.3845,180.2193,59.56275,42.0219
875584.2,340.717,180.2485,59.58717,42.02651
875600.2,340.9841,180.2047,59.60677,42.01959
875616.9,341.252,180.1599,59.62641,42.01252
875633.1,341.4711,180.1837,59.64245,42.01627
875652.4,341.5843,180.1978,59.65073,42.0185
875668.3,341.6828,180.2035,59.65793,42.0194
875685.4,341.7016,180.1549,59.65931,42.01171
875702,341.5194,180.0898,59.64598,42.00142
875717.5,341.232,180.0727,59.62494,41.99871
875733.1,340.7834,180.098,59.59205,42.00271
875751.3,339.983,180.2277,59.5332,42.02322
875771.2,339.2826,180.4369,59.48154,42.05629
875784.3,338.4667,180.7657,59.42116,42.10818
875801.4,337.4486,181.3339,59.34551,42.19764
875818.1,336.5795,181.3768,59.28066,42.20438
875836.1,335.5516,182.5833,59.20364,42.39347
875849.7,333.4199,183.7363,59.0428,42.57311
875870.4,330.9702,185.1379,58.8561,42.79011
