Time Stamp(ms),Intersection,,Angle,
,x,y,x,y
1546833,321.5482,250.3004,58.11877,51.37375
1546875,321.3709,249.6742,58.1046,51.30373
1546895,321.1013,249.4185,58.08302,51.27509
1546929,320.5649,249.6942,58.04002,51.30598
1546964,320.3188,249.5421,58.02025,51.28894
1546995,320.1198,249.3667,58.00426,51.26928
1547028,320.0579,249.1653,57.99927,51.24668
1547063,319.9225,249.6203,57.98838,51.2977
1547092,319.5877,249.7328,57.96141,51.31031
1547127,319.3232,249.9818,57.94007,51.33816
1547162,319.175,249.7239,57.92811,51.30931
1547191,318.8492,249.5879,57.90178,51.29408
1547225,318.5964,249.599,57.88131,51.29532
1547259,317.9364,249.638,57.82778,51.29969
1547289,317.124,249.6048,57.76168,51.29597
1547321,316.0854,249.7003,57.67682,51.30667
1547356,314.7439,249.7329,57.5666,51.31031
1547387,313.1669,249.4476,57.43619,51.27835
1547420,311.1374,249.4197,57.26697,51.27522
1547452,308.3831,249.6926,57.03481,51.3058
1547486,303.9836,250.7999,56.65788,51.42944
1547525,300.0792,251.6005,56.31691,51.51843
1547549,293.0194,253.232,55.68456,51.69868
1547585,286.8623,254.118,55.11585,51.79598
1547619,281.0846,254.5323,54.56702,51.84133
1547650,275.3615,255.5453,54.00842,51.95184
1547684,269.8004,256.7487,53.45088,52.08241
1547719,264.9187,256.6367,52.94907,52.0703
1547750,260.8234,256.8711,52.51892,52.09565
1547785,257.826,257.7019,52.19866,52.1853
1547817,254.648,258.0814,51.85398,52.22613
1547846,252.0346,258.401,51.56652,52.26046
1547882,248.9984,258.7558,51.22794,52.2985
1547927,246.7485,259.3455,50.97379,52.3616
1547948,244.3884,260.5299,50.70415,52.48777
1547983,242.1804,261.7787,50.44906,52.62003
1548015,239.865,262.8796,50.17857,52.73595
1548048,237.3719,263.495,49.88386,52.80049
1548082,235.1544,263.9721,49.61867,52.8504
1548115,233.1718,264.3399,49.37909,52.88879
1548147,231.7209,263.7697,49.20228,52.82925
1548181,230.6077,263.0845,49.06575,52.75747
1548211,229.7262,262.3756,48.95712,52.68296
1548244,229.063,261.6785,48.87506,52.60944
1548276,227.9412,261.6423,48.73566,52.60561
1548309,227.7758,261.7033,48.71505,52.61206
1548341,228.2179,261.977,48.77011,52.64095
1548373,228.7555,261.4902,48.83694,52.58954
1548407,230.0614,259.9818,48.99848,52.42947
1548441,231.3514,258.3602,49.15705,52.25608
1548471,232.6631,256.9622,49.31725,52.1055
1548507,234.1858,255.2112,49.50192,51.91545
1548538,236.8595,252.3144,49.82284,51.59748
1548570,239.704,251.4338,50.15965,51.49993
1548604,241.2443,250.8901,50.34008,51.43949
1548634,243.1963,249.2208,50.56677,51.25292
1548667,244.9111,247.3286,50.76414,51.03959
1548703,246.583,245.429,50.95498,50.82343
1548733,248.7486,243.1628,51.19986,50.5629
1548767,252.033,239.0744,51.56635,50.08551
1548801,256.3491,235.4592,52.03914,49.65529
1548832,260.8985,232.6798,52.52689,49.31928
1548865,264.8608,229.3512,52.94305,48.91075
1548898,267.4256,225.5095,53.20823,48.43081
1548931,269.431,221.8908,53.41331,47.97027
1548965,270.7286,217.487,53.54496,47.39851
1549001,271.4451,213.6785,53.61731,46.89383
1549029,271.937,210.3019,53.66684,46.43828
1549063,272.8647,206.1598,53.75993,45.86887
1549097,273.8713,202.5355,53.86047,45.36089
1549127,275.0104,199.2705,53.97366,44.89531
1549162,277.2523,196.5484,54.19466,44.5013
1549192,279.4236,194.0653,54.40646,44.13717
1549226,282.1599,192.0338,54.6703,43.8359
1549257,284.9802,191.2419,54.9387,43.71763
1549290,287.2416,190.1118,55.15136,43.54803
1549325,289.0814,189.3049,55.3227,43.42635
1549357,290.4209,188.6811,55.44654,43.33195
1549389,291.2581,188.2238,55.52354,43.26255
1549425,291.3889,188.0376,55.53555,43.23425
1549454,291.391,187.9002,55.53574,43.21334
1549488,291.2747,188.2321,55.52507,43.2638
1549519,291.1364,188.4878,55.51237,43.30263
1549550,291.3363,188.9211,55.53072,43.3683
1549586,291.6667,189.4306,55.56101,43.44534
1549619,291.9977,190.537,55.59132,43.61195
1549649,292.7533,192.3899,55.66032,43.88894
1549682,293.2981,194.9454,55.70992,44.26676
1549714,294.8509,199.7591,55.85061,44.96547
1549750,297.5013,206.0678,56.0884,45.8561
1549781,300.8221,212.321,56.38226,46.71161
1549813,304.6769,218.4958,56.71778,47.53059
1549845,308.6872,225.0341,57.0606,48.37078
1549876,313.2389,229.8433,57.44217,48.97158
1549909,316.6461,233.7635,57.72268,49.45084
1549946,319.3588,236.3381,57.94294,49.76059
1549973,321.985,238.7463,58.15364,50.04678
1550011,324.061,241.2411,58.31845,50.3397
1550041,326.9305,243.8682,58.54375,50.64431
1550078,330.1664,245.6308,58.7944,50.84648
1550108,335.2231,248.312,59.17896,51.1507
1550142,343.0189,251.5249,59.75533,51.51004
1550174,351.9603,254.5294,60.39277,51.84101
1550206,361.1559,257.0663,61.0233,52.11674
1550242,371.1936,258.2395,61.6841,52.24312
1550270,380.8654,259.9273,62.29514,52.42366
1550305,389.3848,261.034,62.81358,52.54126
1550339,397.9938,262.5559,63.31954,52.70193
1550368,404.9403,264.8435,63.71524,52.94125
1550403,410.656,267.0006,64.03273,53.16452
1550436,415.299,269.0578,64.28543,53.3753
1550469,418.8258,270.7345,64.47433,53.54557
1550502,421.2358,272.649,64.60194,53.73832
1550534,423.0975,274.4016,64.6997,53.91324
1550567,425.2453,276.3946,64.81161,54.11038
1550597,426.9522,277.8791,64.89989,54.25602
1550629,428.5163,278.7295,64.98029,54.33899
1550662,429.7003,278.7822,65.04081,54.34412
1550704,430.3192,278.7309,65.07235,54.33912
1550729,430.3908,278.5141,65.076,54.318
1550763,429.9254,277.9182,65.05229,54.25984
1550793,428.7251,277.5827,64.99097,54.22702
1550829,427.2394,277.1758,64.91469,54.18715
1550862,425.8564,276.5035,64.84328,54.1211
1550893,423.9859,275.3426,64.7461,54.00655
1550926,422.585,274.128,64.67286,53.88603
1550960,422.1486,273.6035,64.64996,53.83377
1550990,421.2779,273.3332,64.60416,53.80678
1551024,419.3517,273.4528,64.50228,53.81873
1551055,415.182,273.2036,64.27912,53.79383
1551087,406.997,272.9486,63.83031,53.76833
1551125,394.9765,273.1166,63.1442,53.78513
1551159,380.5512,272.7018,62.27568,53.74361
1551188,364.202,272.6471,61.22679,53.73813
1551218,346.9814,273.4974,60.04086,53.82318
1551258,327.7269,275.5506,58.60577,54.02712
1551285,307.6317,275.2164,56.97097,53.99406
1551319,286.3499,275.5216,55.06777,54.02425
1551352,265.4582,277.4965,53.00511,54.21859
1551383,245.5676,281.6516,50.83926,54.62154
1551418,230.5749,284.8115,49.06172,54.92274
1551448,219.5252,286.8604,47.6647,55.11567
1551482,210.9699,289.0229,46.52902,55.31728
1551515,204.325,291.0412,45.61287,55.50362
1551549,200.5813,292.8828,45.08315,55.67212
1551583,199.3295,294.5522,44.9038,55.82362
1551615,199.0647,294.6108,44.86572,55.82892
1551647,199.3508,294.2664,44.90686,55.79777
1551679,200.4826,294.9047,45.06905,55.85546
1551712,202.4413,295.0717,45.34756,55.87053
1551746,203.9051,294.9344,45.55394,55.85815
1551777,205.2629,294.8801,45.74402,55.85324
1551811,206.6101,295.4203,45.93135,55.90194
1551846,207.6913,295.8812,46.08078,55.94339
1551875,208.5825,296.5256,46.20335,56.0012
1551909,209.1453,297.7058,46.28048,56.10663
1551944,209.3387,299.0439,46.30692,56.22546
1551972,209.6056,300.7183,46.34338,56.37314
1552006,209.2702,302.7729,46.29755,56.55281
1552039,207.4881,304.7723,46.05276,56.72601
1552072,206.83,305.9388,45.96182,56.82633
1552107,206.7129,306.3467,45.94559,56.86129
1552137,207.0075,306.6501,45.98638,56.88724
1552177,207.7507,306.3513,46.08897,56.86168
1552205,208.7173,306.3692,46.22184,56.86321
1552232,209.753,306.6281,46.36351,56.88536
1552266,210.4493,306.6471,46.45833,56.88698
1552299,210.9858,306.7845,46.53118,56.89873
1552332,211.2258,306.8274,46.56369,56.90239
1552367,211.2209,306.9197,46.56303,56.91028
1552399,211.0555,307.3058,46.54062,56.94321
1552430,211.4051,307.8824,46.58797,56.99229
1552466,211.888,308.1406,46.65323,57.01424
1552495,212.751,308.1747,46.76945,57.01714
1552528,213.7833,308.2252,46.90784,57.02142
1552563,214.3923,308.139,46.98915,57.0141
1552593,214.6991,308.3114,47.03001,57.02874
1552627,214.8681,308.2144,47.0525,57.0205
1552662,215.1524,307.8439,47.09028,56.98903
1552691,215.2731,307.4499,47.10631,56.95549
1552722,215.2054,307.26,47.09731,56.93931
1552757,215.4334,307.0985,47.12757,56.92554
1552788,216.2837,306.9573,47.24009,56.91349
1552820,217.216,306.7752,47.36292,56.89793
1552856,217.9679,306.6975,47.46156,56.8913
1552885,218.7167,306.6359,47.55942,56.88603
1552928,219.2741,306.8052,47.63204,56.90049
1552954,219.8639,306.8582,47.70867,56.90502
1552985,220.6372,306.7168,47.80878,56.89294
1553018,221.2521,306.4254,47.88812,56.86802
1553053,221.7787,306.1985,47.95587,56.84859
1553086,222.304,305.7915,48.02326,56.81369
1553117,222.3587,305.2677,48.03028,56.76868
1553150,222.0691,304.5151,47.99315,56.70382
1553182,221.5735,304.0445,47.92948,56.66314
1553214,220.9733,304.0128,47.85217,56.6604
1553248,220.4763,304.0322,47.78798,56.66208
1553280,220.3282,303.7213,47.76883,56.63516
1553313,220.5752,303.4206,47.80076,56.60908
1553345,221.1759,303.4691,47.8783,56.61329
1553379,222.5184,303.5738,48.05073,56.62238
1553410,223.9243,303.628,48.23008,56.62707
1553444,225.4158,303.9323,48.41899,56.65343
1553477,227.0669,303.8542,48.62648,56.64667
1553506,228.1281,303.9926,48.75895,56.65865
1553541,228.7777,304.1255,48.83968,56.67015
1553571,228.959,303.7712,48.86217,56.63948
1553604,228.6568,303.9644,48.82467,56.65622
1553638,228.2741,304.2966,48.77711,56.68494
1553671,227.6967,304.6522,48.70517,56.71565
1553706,227.5566,304.9953,48.68769,56.74523
1553736,227.7474,305.405,48.7115,56.78049
1553768,227.9577,305.7459,48.73772,56.80978
1553801,228.0652,306.1904,48.75111,56.8479
1553832,228.1252,306.7734,48.75858,56.89779
1553867,228.4018,307.1367,48.793,56.92879
1553902,228.7712,307.2037,48.83888,56.93451
1553931,229.1367,307.1719,48.88419,56.9318
1553966,229.3581,307.1383,48.91161,56.92893
1553998,229.5538,306.9752,48.93582,56.91502
1554030,229.7261,307.0229,48.9571,56.91909
1554063,229.7545,307.5938,48.96061,56.96775
1554098,229.818,307.9832,48.96845,57.00087
1554129,229.6103,308.3872,48.9428,57.03517
1554164,229.4715,308.5233,48.92564,57.0467
1554193,229.3758,308.5422,48.9138,57.04831
1554224,229.4998,308.4456,48.92913,57.04012
1554259,229.5597,308.3044,48.93655,57.02814
1554290,229.878,308.8525,48.97586,57.07459
1554324,230.5822,309.6044,49.06263,57.13812
1554357,231.5512,310.2368,49.18151,57.19138
1554389,233.0448,311.026,49.36367,57.25764
1554424,235.2234,311.4861,49.62697,57.29617
1554460,238.9982,311.6194,50.07652,57.30731
1554489,244.2076,311.3706,50.68337,57.2865
1554521,251.3332,309.2937,51.48875,57.11189
1554551,261.9526,307.03,52.63837,56.91969
1554585,272.3951,306.0822,53.71286,56.83863
1554620,283.1567,305.5335,54.76558,56.79153
1554651,293.5905,303.318,55.73649,56.60018
1554682,304.3553,302.7128,56.69001,56.54757
1554720,314.7722,302.7008,57.56893,56.54653
1554749,324.1133,301.9955,58.32258,56.48502
1554781,333.1124,302.3005,59.01948,56.51164
1554813,341.5292,302.0702,59.6467,56.49155
1554845,349.4271,301.996,60.21467,56.48507
1554878,357.4482,301.6916,60.77204,56.45846
1554912,365.2542,301.8474,61.29648,56.47208
1554945,371.7665,300.5991,61.72099,56.36266
1554977,377.1291,300.1325,62.06199,56.32161
1555009,380.4138,299.8673,62.26715,56.29823
1555043,381.3954,299.3924,62.32792,56.2563
1555077,383.1162,297.3261,62.43387,56.07278
1555117,386.2368,296.0251,62.62411,55.95631
1555142,390.7976,295.0221,62.89782,55.86605
1555178,395.8708,294.3804,63.19639,55.80808
1555209,400.6488,293.945,63.47208,55.76866
1555243,405.8161,293.3626,63.76435,55.71578
1555275,411.3971,291.6441,64.07337,55.55894
1555307,416.1568,289.8622,64.33161,55.39499
1555340,420.6114,288.8568,64.56899,55.30187
1555371,424.8884,286.7408,64.79308,55.10446
1555407,427.8786,284.6723,64.94756,54.90958
1555439,429.4853,282.8128,65.02985,54.73275
1555472,430.8485,279.8953,65.09926,54.45219
1555507,431.4943,275.5215,65.13202,54.02425
1555537,431.5794,270.9501,65.13632,53.56736
1555569,431.0576,265.4448,65.10987,53.00372
1555604,429.6591,258.6055,65.03871,52.28239
1555633,427.4876,252.8033,64.92747,51.65146
1555669,425.4373,246.6291,64.82157,50.96022
1555702,423.8643,238.3411,64.73976,49.99886
1555731,421.5058,232.256,64.61616,49.26764
1555764,419.8373,226.6265,64.52804,48.5713
1555799,419.5862,221.9626,64.51472,47.97948
1555830,418.9103,218.6104,64.47883,47.54556
1555863,418.6102,214.6144,64.46286,47.01874
1555897,417.3646,209.9953,64.39639,46.39654
1555933,415.45,206.5261,64.29357,45.91972
1555962,413.4915,202.9944,64.1876,45.42572
1555994,411.7593,200.6207,64.09319,45.08877
1556025,409.3697,197.7433,63.9619,44.67492
1556057,406.7919,195.6571,63.81887,44.37112
1556089,403.2866,194.4325,63.62202,44.19131
1556130,399.6566,193.1222,63.41526,43.99769
1556157,394.6778,192.3295,63.12673,43.87994
1556190,388.7592,193.273,62.77612,44.02003
1556223,381.6442,195.7652,62.34329,44.38695
1556253,371.9216,198.0401,61.73096,44.71789
1556287,359.5823,199.7697,60.91715,44.96699
1556320,346.7359,201.8377,60.02331,45.26203
1556352,332.1889,203.4535,58.94924,45.49043
1556384,317.8912,205.0997,57.82411,45.72124
1556420,305.5343,207.7078,56.7916,46.08306
1556452,294.1214,208.1723,55.78464,46.147
1556483,283.4916,206.2236,54.79748,45.87775
1556518,274.0703,205.2802,53.88028,45.74643
1556551,268.5298,204.2071,53.32139,45.59633
1556581,265.6624,203.9459,53.02628,45.55967
1556615,264.6115,205.1374,52.91709,45.72651
1556649,264.0538,206.0975,52.85894,45.86022
1556680,263.5912,207.0359,52.81057,45.99029
1556713,262.0996,208.0135,52.65388,46.12516
1556748,260.0875,208.4953,52.44073,46.19138
1556778,257.3178,208.7911,52.1439,46.23196
1556812,254.0015,209.3923,51.78321,46.31425
1556844,249.9352,210.1775,51.33294,46.42135
