Time Stamp(ms),Intersection,,Angle,
,x,y,x,y
529335.5,319.3613,243.5908,57.94314,50.61232
529352.9,319.4078,243.4626,57.9469,50.59753
529369.6,319.445,243.3848,57.9499,50.58855
529387,319.4274,243.5363,57.94848,50.60604
529403.3,319.3961,243.5796,57.94596,50.61103
529420.3,319.3713,243.5885,57.94395,50.61206
529435.6,319.3464,243.6,57.94194,50.61339
529453.9,319.3111,243.5803,57.93909,50.61111
529473.1,319.2726,243.5916,57.93599,50.61242
529487,319.2261,243.7005,57.93223,50.62498
529503.9,319.1794,243.8282,57.92846,50.6397
529519.7,319.1281,243.8827,57.92432,50.64598
529537.6,319.0421,243.95,57.91737,50.65373
529554.7,319.0054,244.0727,57.9144,50.66785
529570.3,318.9336,244.1971,57.9086,50.68216
529587.8,318.817,244.2631,57.89916,50.68975
529604.8,318.7048,244.2097,57.89009,50.68361
529621.9,318.6405,244.1803,57.88488,50.68023
529636.6,318.6186,244.1892,57.8831,50.68125
529655.1,318.5098,244.3042,57.8743,50.69448
529670.2,318.3733,244.3594,57.86324,50.70082
529687.1,318.2862,244.3839,57.85617,50.70364
529704.8,318.1801,244.4022,57.84756,50.70574
529720.1,318.0576,244.3311,57.83763,50.69756
529738.9,317.9701,244.3124,57.83052,50.69542
529754.7,317.885,244.323,57.8236,50.69664
529772.2,317.7785,244.2651,57.81495,50.68998
529788.2,317.6654,244.2562,57.80576,50.68896
529806.3,317.6276,244.324,57.80268,50.69676
529823.5,317.593,244.3829,57.79987,50.70352
529839.7,317.5287,244.4786,57.79464,50.71451
529854.4,317.4615,244.5734,57.78917,50.7254
529871.5,317.3904,244.5812,57.78338,50.7263
529887.4,317.3775,244.6173,57.78233,50.73045
529905,317.4003,244.6769,57.78418,50.73729
529920.6,317.3907,244.6953,57.7834,50.7394
529938.8,317.365,244.7446,57.78131,50.74505
529955.2,317.3082,244.7945,57.77669,50.75077
529971.3,317.2314,244.8262,57.77043,50.7544
529989,317.2097,244.8433,57.76867,50.75636
530006.5,317.0948,244.885,57.75929,50.76115
530028.7,317.0257,244.8927,57.75366,50.76203
530040.6,316.9112,244.9328,57.74432,50.76662
530055.3,316.7915,245.0199,57.73455,50.77661
530070.3,316.709,244.9612,57.72781,50.76988
530088,316.6238,244.9563,57.72086,50.76932
530104.9,316.5462,244.9647,57.71452,50.77028
530122.9,316.393,245.0634,57.70199,50.78159
530140.1,316.2054,245.1632,57.68664,50.79301
530156.4,316.0143,245.0951,57.67099,50.78521
530171.6,315.8407,244.9828,57.65676,50.77236
530187.5,315.5279,244.9688,57.63109,50.77076
530203.7,315.275,245.0308,57.61032,50.77785
530220.9,315.0182,245.0851,57.5892,50.78407
530236.3,314.7911,245.0499,57.57049,50.78004
530253.4,314.6306,245.0809,57.55727,50.7836
530270.4,314.3884,245.0839,57.53728,50.78394
530286.3,314.081,245.1649,57.51189,50.79321
530306,313.6724,245.2675,57.47809,50.80495
530323.2,313.2196,245.2107,57.44056,50.79846
530337.3,312.8394,245.126,57.40899,50.78876
530352.8,312.2089,245.021,57.35651,50.77673
530372.8,311.4568,244.9305,57.29371,50.76636
530386.6,310.5564,244.6935,57.21825,50.73919
530403.4,309.4456,244.2412,57.12472,50.68723
530421.5,307.4093,243.4061,56.95204,50.591
530437,306.2599,243.0827,56.85386,50.55363
530453,304.5511,242.637,56.70692,50.50204
530470.1,302.9418,241.9741,56.5675,50.42509
530486.7,301.3639,241.0815,56.42978,50.32107
530503.3,300.1065,240.3739,56.31932,50.23829
530520.5,299.0345,239.7518,56.22464,50.16527
530537.5,298.1125,239.0014,56.14283,50.07689
530552.9,297.0006,238.2079,56.0437,49.98309
530570.3,296.0537,237.3384,55.95889,49.87988
530587.8,295.1769,236.3285,55.88002,49.75944
530607.4,294.3325,235.2943,55.80375,49.63549
530620.6,293.5273,234.393,55.73075,49.52694
530637.8,292.8686,233.6708,55.67083,49.43961
530656.3,292.2324,232.8611,55.61278,49.34134
530674.4,291.6656,231.9643,55.56092,49.23203
530692.9,291.2249,231.3148,55.5205,49.15257
530709.8,290.9305,230.4976,55.49344,49.05222
530725.4,290.5464,229.77,55.4581,48.96253
530741.3,290.1476,228.988,55.42133,48.86577
530760.6,289.6955,228.0296,55.37957,48.74668
530777.4,289.4135,227.45,55.35348,48.67438
530792.8,289.0706,226.3531,55.3217,48.53698
530808.3,288.6578,225.2947,55.28338,48.4037
530826,288.2721,224.4753,55.24751,48.30003
530841.6,287.9498,223.9063,55.21749,48.22779
530858.1,287.7011,223.3237,55.19429,48.15362
530874.4,287.441,222.7303,55.16999,48.07784
530890.7,287.1936,222.2348,55.14687,48.0144
530908.6,286.9146,221.8416,55.12075,47.96394
530924.6,286.705,221.5795,55.1011,47.93026
530939.8,286.4772,221.2932,55.07973,47.89341
530961.1,286.3599,221.1471,55.06871,47.87458
530979.4,286.2537,221.0071,55.05873,47.85654
530989.8,286.0945,220.774,55.04376,47.82645
531009,285.9616,220.5931,55.03127,47.80308
531024.1,285.8883,220.427,55.02437,47.78161
531042.1,285.8693,220.2053,55.02258,47.75291
531057.2,285.99,220.0851,55.03394,47.73735
531075.6,286.0624,219.9032,55.04075,47.71376
531091.6,286.1102,219.6907,55.04525,47.68618
531108.3,286.1741,219.4619,55.05125,47.65646
531126.5,286.2523,219.1953,55.05861,47.62179
531139.1,286.2442,218.8422,55.05784,47.57579
531155.8,286.1822,218.4396,55.05202,47.52325
531173.4,286.0002,218.1768,55.0349,47.4889
531189.5,285.4577,217.7711,54.98379,47.43577
531206.9,284.7329,217.1735,54.91531,47.35733
531227.7,283.8503,216.5562,54.8316,47.27605
531245.1,282.5159,215.8987,54.70438,47.1892
531260.1,280.3282,215.1697,54.49406,47.09257
531275.9,277.5463,214.4143,54.22346,46.99208
531291.6,273.8505,213.204,53.85839,46.83028
531306.8,270.6105,211.5541,53.53302,46.60812
531325.8,265.9789,209.3179,53.05905,46.30408
531341.8,262.9425,208.1684,52.74256,46.14647
531359.5,260.2802,206.6428,52.46122,45.93589
531371.9,256.3965,204.2105,52.04428,45.59681
531391.1,253.2858,202.6679,51.70461,45.37962
531407.4,250.8151,201.4986,51.43113,45.21386
531424.2,248.6612,200.5725,51.19003,45.08189
531441.1,247.0416,199.7794,51.00705,44.96838
531457.6,246.1493,199.1221,50.90562,44.87397
531473.4,245.402,198.3042,50.82034,44.75606
531494.2,244.7208,197.7964,50.74232,44.68261
531508.8,244.4093,197.2976,50.70655,44.61028
531526.7,244.3683,196.9901,50.70184,44.56561
531542.9,244.8291,196.589,50.75473,44.50722
531559,245.0849,196.0969,50.78405,44.43544
531576.3,245.5002,195.6268,50.83156,44.36669
531589.5,246.1176,195.3025,50.90201,44.31918
531608.3,246.8532,194.9116,50.98568,44.26179
531626.3,248.0799,194.5076,51.12452,44.20236
531642.1,249.2563,194.105,51.2569,44.14304
531660.1,250.5696,193.7232,51.40378,44.08666
531675.9,252.2045,193.3887,51.58532,44.03718
531690.9,254.1028,192.953,51.79432,43.9726
531709.4,256.3002,192.6367,52.03384,43.92564
531725.6,258.7053,192.478,52.29309,43.90204
531745.5,261.2319,192.2129,52.56221,43.86259
531763,263.1795,191.8479,52.76743,43.80818
531778.1,265.2356,191.5045,52.98201,43.7569
531791.6,267.5607,191.124,53.22211,43.69997
531808.7,270.1744,190.5483,53.48884,43.61364
531828.3,272.7736,190.3235,53.7508,43.57987
531844.8,274.5138,190.2044,53.92439,43.56196
531858.5,276.793,190.1302,54.14957,43.5508
531874.6,279.0109,190.1305,54.36637,43.55085
531891.6,281.3712,190.2859,54.59461,43.57421
531908.4,284.1269,190.7969,54.85787,43.65096
531927.4,286.0452,191.4624,55.03913,43.7506
531942.6,287.8144,192.7257,55.20486,43.93885
531960.6,289.4363,193.6377,55.35559,44.07402
531978.6,290.7888,194.3048,55.48041,44.17249
531993.5,292.1156,195.1694,55.6021,44.29964
532011,293.5989,195.9397,55.73725,44.41246
532027.7,294.4128,196.6206,55.81101,44.51182
532045.5,295.0766,197.2199,55.87097,44.59901
532062.4,295.758,197.7357,55.93232,44.67382
532078.1,296.5179,198.0605,56.00051,44.72083
532095.1,297.1642,198.2697,56.05832,44.75107
532110.8,297.6253,198.394,56.09946,44.76902
532127.8,298.1518,198.4242,56.14632,44.77339
532145.3,298.7721,198.3349,56.20139,44.7605
532164.5,299.6075,198.0471,56.2753,44.71889
532177.4,300.4756,197.8202,56.35181,44.68607
532194.4,301.2469,197.3972,56.41953,44.62475
532211.8,302.0505,197.0334,56.48983,44.5719
532230.5,303.0622,196.7459,56.57796,44.53007
532247.6,304.0979,196.6078,56.66776,44.50996
532262.4,305.101,196.5287,56.75433,44.49844
532279.1,306.1943,196.3562,56.84823,44.47329
532292.5,307.5541,196.0529,56.96437,44.42901
532310.9,308.8283,195.7606,57.07254,44.38627
532327.8,309.9477,195.3479,57.16705,44.32582
532344.7,311.1764,195.0733,57.27024,44.28555
532367.7,312.3321,195.0226,57.36677,44.27809
532379.6,313.3042,195.0159,57.44758,44.27712
532393.1,314.5097,195.1077,57.54729,44.29058
532409.9,315.6586,195.1415,57.64182,44.29555
532429.4,316.5638,195.012,57.71595,44.27654
532446.1,317.6467,195.1457,57.80423,44.29617
532466.3,318.5176,195.3292,57.87493,44.32308
532477.7,319.6342,195.8186,57.96515,44.39475
532495.4,320.8598,196.1768,58.06367,44.44711
532511.9,322.1043,196.3387,58.16315,44.47073
532531.8,323.1757,196.6181,58.24836,44.51146
532548,324.5369,196.9808,58.35602,44.56425
532566.1,325.7508,197.291,58.45148,44.60933
532584,327.0728,197.7844,58.55485,44.68088
532597.5,328.4754,198.4485,58.66387,44.77691
532610.3,330.0513,199.0481,58.78555,44.86332
532628.8,331.5892,199.3817,58.90347,44.9113
532645.3,333.2678,199.5904,59.03127,44.94127
532660.6,335.2039,199.994,59.17751,44.99914
532677.6,337.1021,200.1838,59.31968,45.02632
532693.7,339.3725,200.7447,59.48818,45.10648
532711.9,341.5042,201.4606,59.64487,45.20845
532728.6,344.0018,202.3433,59.82661,45.33369
532745.9,346.2078,203.0517,59.9855,45.4338
532760.2,348.7085,204.2069,60.16379,45.59631
532777.1,351.4706,205.3396,60.35849,45.75472
532792.6,354.5357,206.5626,60.57187,45.92477
532810.1,357.3412,207.8955,60.76474,46.10892
532826.9,360.6911,209.7412,60.99202,46.3619
532844.8,363.5925,211.5085,61.18629,46.60195
532861.1,366.7828,213.8502,61.39717,46.91678
532877.4,369.692,216.2215,61.58702,47.23187
532893.8,372.6888,218.6915,61.78018,47.55613
532911.9,374.6223,220.3228,61.90353,47.76813
532927.1,376.9902,222.5717,62.05326,48.05755
532944.4,378.842,224.0345,62.16933,48.24409
532961,380.9018,226.3254,62.29739,48.5335
532977.9,383.0635,228.5788,62.43064,48.81499
532994,385.137,230.8167,62.55734,49.09145
533011.3,386.2199,231.8783,62.62309,49.22152
533028.4,386.6532,232.3833,62.64931,49.28316
533043.9,386.4374,232.4967,62.63626,49.29699
533061.2,386.6859,233.2043,62.65129,49.38305
533077.8,386.9719,233.6861,62.66857,49.44147
533093.4,387.2918,233.9122,62.68788,49.46883
533113.7,387.5157,234.042,62.70138,49.48454
533129.3,387.9222,234.3424,62.72585,49.52083
533144.9,388.5859,234.4628,62.76572,49.53536
533162.6,389.3201,234.642,62.80971,49.55698
533179.1,390.2711,234.7481,62.86649,49.56976
533195.4,391.3453,234.9219,62.93035,49.5907
533213.1,392.1606,234.8079,62.97864,49.57697
533228.6,393.1107,234.6669,63.03471,49.55998
533245.9,393.9791,234.469,63.08578,49.53611
533262.2,395.0727,234.2681,63.14983,49.51186
533279.1,395.9368,233.8711,63.20024,49.46387
533293.6,396.9421,233.2982,63.25867,49.39444
533314.1,397.8153,232.964,63.30923,49.35385
533329.4,398.7434,232.4585,63.36277,49.29234
533344.8,399.9557,231.9025,63.43242,49.22448
533362.3,401.1529,231.5013,63.50085,49.17541
533380.4,402.1305,230.8687,63.5565,49.09784
533395.5,403.1573,230.6639,63.61472,49.07267
533410.6,404.3331,230.2439,63.68108,49.02097
533430.4,405.5633,229.7276,63.75019,48.95729
533448.3,406.4814,229.1705,63.80154,48.88838
533463.4,407.3532,228.8717,63.85014,48.85135
533480.9,408.0037,228.7655,63.8863,48.83817
533497.1,408.5253,228.5063,63.91521,48.80599
533513.6,408.8773,228.1024,63.9347,48.75574
533530.8,409.2946,227.9983,63.95776,48.74278
533547.3,409.6025,227.4891,63.97475,48.67926
533562.4,409.9702,226.7354,63.99501,48.58496
533578.9,410.5242,226.2486,64.02549,48.52385
533594,411.2173,225.6194,64.06353,48.44466
533611.6,411.9381,224.9412,64.10297,48.35902
533628,412.6634,224.1494,64.14255,48.25868
533644.3,413.1961,223.2879,64.17155,48.14904
533662.8,413.721,222.2789,64.20006,48.02005
533678.2,414.2298,221.2325,64.22765,47.88558
533694.5,414.4267,220.1314,64.2383,47.74333
533712.5,414.2445,218.7407,64.22844,47.56255
533728.3,414.0681,217.6621,64.21889,47.42148
533746.2,414.1711,216.76,64.22446,47.30291
533762.4,414.1187,215.9022,64.22163,47.18966
533778.7,414.2768,215.1245,64.23019,47.08658
533795.6,414.1909,214.1689,64.22554,46.95934
533812.9,414.0279,213.4111,64.21671,46.85803
533829.3,413.835,212.9322,64.20625,46.7938
533849.1,413.6986,212.3512,64.19884,46.71567
533863.5,413.4046,211.7668,64.18288,46.63686
533879.3,413.3754,211.3348,64.1813,46.57845
533896.6,413.0581,211.0916,64.16404,46.54551
533913.3,412.7261,210.9377,64.14597,46.52465
533928.4,412.1778,210.9174,64.11607,46.5219
533945.7,411.8292,210.5114,64.09702,46.46677
533963.3,411.4491,210.1459,64.07623,46.41705
533980.8,411.4577,210.643,64.0767,46.48465
533998.6,411.3785,210.4944,64.07236,46.46446
534014.8,411.0772,209.9801,64.05585,46.39447
534031.4,410.9776,209.5775,64.05038,46.33955
534047.9,410.9724,209.2401,64.05009,46.29344
534065.9,410.8232,208.734,64.04191,46.22414
534082.5,410.6229,208.28,64.03091,46.16181
534098,410.7042,207.5735,64.03538,46.06454
534113.8,410.7178,206.8927,64.03613,45.97049
534132.8,410.6659,206.4563,64.03327,45.91003
534148.8,410.3705,205.9818,64.01704,45.84414
534166.4,409.9901,205.692,63.99611,45.80383
534182.3,409.4979,205.1937,63.96898,45.73436
534198.6,408.7843,204.8795,63.92955,45.69048
534215.4,407.9064,204.6092,63.88089,45.65267
534232.9,406.9484,204.5637,63.8276,45.64631
534252.1,405.9938,204.5728,63.7743,45.64757
534266.2,404.883,204.4919,63.71202,45.63625
534283.8,403.8878,204.335,63.65598,45.61426
534297.4,402.6812,204.1936,63.58775,45.59444
534312.9,400.8498,203.9673,63.48355,45.56267
534333.1,399.4581,203.6607,63.40387,45.51958
534349.5,398.1312,203.3343,63.32747,45.47364
534366.6,396.8029,202.9524,63.25059,45.41979
534382.9,395.35,202.598,63.16602,45.36973
534397.5,393.746,202.1405,63.07209,45.30497
534413.3,391.8768,201.5829,62.96185,45.22583
534430.6,390.2998,201.0112,62.86819,45.14447
534447.4,388.816,200.4075,62.77952,45.05831
534463.4,387.0961,199.8079,62.67607,44.97247
534482.9,385.5482,199.3683,62.58234,44.90937
534498.7,383.8871,198.9205,62.48109,44.84496
534514.4,382.2004,198.3192,62.37758,44.75822
534531.8,380.3843,197.7998,62.26532,44.68311
534550.7,378.3079,197.3207,62.13594,44.61364
534569.1,376.1434,197.234,61.99988,44.60104
534583.9,373.2112,196.9113,61.81361,44.55414
534599.9,370.3169,196.1131,61.62749,44.4378
534616.9,367.3392,194.9218,61.43366,44.26328
534632.9,364.7554,194.1556,61.26348,44.15051
534650.6,362.2482,193.5681,61.09658,44.06372
534666.3,359.6773,193.0445,60.92358,43.98617
534683.4,357.0254,192.8008,60.74314,43.95001
534699.8,354.0949,192.6667,60.54136,43.9301
534714,349.7564,191.8651,60.23793,43.81075
534732.2,345.832,191.3324,59.95854,43.73116
534748.3,341.6501,190.9973,59.65554,43.68101
534764.9,338.0685,190.6215,59.39161,43.62463
534781.2,334.4297,190.5308,59.11918,43.61102
534797.8,330.8694,191.0154,58.84838,43.68371
534813.8,326.6834,192.8081,58.52447,43.9511
534834.8,323.3813,194.022,58.26466,44.13079
534850.6,320.2131,195.4585,58.01176,44.34204
534867.1,317.632,197.1666,57.80305,44.59126
534883.9,314.4941,199.6511,57.54601,44.94998
534900.2,310.9322,202.261,57.24978,45.32204
534918.1,307.5671,204.8947,56.96548,45.69261
534932,303.4983,208.2302,56.61582,46.15497
534949.3,299.7926,211.2753,56.29165,46.5704
534966.7,295.8551,215.2626,55.94104,47.1049
534983.5,292.2985,219.1617,55.61882,47.61741
535001.3,289.2521,222.9651,55.33853,48.10785
535017.1,286.6251,226.4187,55.0936,48.54522
535029.8,284.7344,229.1782,54.91545,48.88934
535047.6,283.1203,231.3532,54.7621,49.15727
535064.5,281.7235,232.7949,54.62845,49.33329
535081.1,280.2099,233.9818,54.48263,49.47725
535102.1,279.1817,234.668,54.38297,49.5601
535118.2,278.4026,234.7354,54.30713,49.56824
535135,277.8485,234.7961,54.25303,49.57555
535151.6,277.5678,234.8896,54.22557,49.58681
535164.3,277.759,235.259,54.24427,49.63124
535193.8,278.0802,235.5226,54.27567,49.6629
535201.3,278.7281,235.5869,54.33885,49.67062
535216.4,279.4554,235.6533,54.40955,49.67858
535228.9,280.2031,235.7407,54.48197,49.68907
535246.8,280.8895,235.5257,54.54823,49.66327
535263.8,281.5245,235.3229,54.60934,49.63892
535280.8,282.3247,235.1733,54.68609,49.62094
535298.3,282.9691,235.171,54.74768,49.62067
535313.9,283.6179,235.1095,54.8095,49.61327
535330.8,284.067,234.981,54.85219,49.59781
535347.9,284.4289,234.8436,54.88651,49.58127
535364.6,284.6468,234.8808,54.90715,49.58575
535381.8,284.6665,234.9187,54.90903,49.59031
535398.5,284.6122,234.7944,54.90388,49.57534
535413.6,284.52,234.6386,54.89515,49.55657
535431.1,284.2443,234.4242,54.86901,49.53071
535450.1,283.8612,234.2749,54.83263,49.51269
535464.4,283.3794,234.396,54.7868,49.52731
535485.7,282.973,234.5455,54.74805,49.54534
535502.4,282.6186,234.6815,54.7142,49.56174
535517.6,282.3214,234.7391,54.68577,49.56868
535531.1,281.9836,234.8732,54.6534,49.58484
535547.6,281.6328,235.2082,54.61974,49.62514
535564.3,281.3204,235.5605,54.58972,49.66745
535581.9,281.086,235.8826,54.56716,49.70607
535598.5,280.9546,236.2669,54.5545,49.75208
535614.5,280.854,236.631,54.54481,49.79558
535631.1,280.7881,237.1097,54.53845,49.85265
535647.9,280.8823,237.884,54.54753,49.94469
535670.9,280.8763,238.6563,54.54696,50.03614
535688.8,280.5585,239.1482,54.5163,50.0942
535703.8,280.1873,239.6171,54.48045,50.14943
535718.6,279.7097,240.1807,54.43421,50.21564
535735.6,279.17,240.8983,54.38183,50.29967
535752.2,278.5119,241.727,54.31779,50.39634
535768.9,277.5761,242.4391,54.22638,50.4791
535785.5,276.545,243.0113,54.12519,50.54538
535809.4,275.7439,243.476,54.04622,50.59908
535825.9,274.7239,243.8991,53.94525,50.64787
535838.8,273.6512,244.2437,53.83853,50.68753
535851.9,272.3608,244.517,53.70942,50.71893
535868.8,270.9108,244.8165,53.56339,50.75329
535885.8,269.4011,245.1513,53.41027,50.79165
535905.6,268.1748,245.3549,53.28508,50.81495
535920.8,266.6119,245.6316,53.12446,50.84657
535937.1,265.49,246.0072,53.0084,50.88943
535952.9,263.6974,246.3821,52.82168,50.93213
535968.9,262.3193,246.7085,52.67703,50.96924
535984.6,260.5258,246.8305,52.48733,50.9831
536002.3,259.0223,246.9846,52.32704,51.00058
536019.4,257.91,247.3601,52.2077,51.04315
536033.5,256.64,247.6593,52.07065,51.07701
536053.4,255.4613,247.7123,51.9427,51.083
536068.7,254.5622,247.9325,51.84461,51.10788
536086.2,253.9456,248.4193,51.77708,51.16279
536105.3,253.0912,248.9321,51.68319,51.22049
536119.9,252.246,249.3835,51.58992,51.27117
536133.8,251.2426,249.8196,51.47869,51.32002
536151.4,250.3579,250.2495,51.38017,51.36807
536168.9,249.5943,250.817,51.29479,51.43134
536185.1,248.8544,251.3247,51.21177,51.48782
536210.8,247.8836,252.1417,51.10236,51.57838
536223.6,246.7623,252.7497,50.97535,51.64555
536237.4,245.7044,254.098,50.85489,51.79379
536251.3,244.4521,255.3151,50.71147,51.92677
536268.4,243.4918,256.5074,50.6009,52.0563
536286.4,242.3652,257.377,50.47051,52.15029
536302.4,241.2397,258.6117,50.33954,52.28305
536318.8,240.0956,259.8922,50.20565,52.41993
536334.9,238.9367,261.5068,50.06926,52.59129
536351.6,238.0123,263.1299,49.95991,52.76223
536372.4,237.1475,264.3374,49.85716,52.88853
536388.9,236.1857,265.4304,49.74236,53.00222
536405.3,235.2977,266.4424,49.63589,53.10696
536421.4,234.4247,267.8498,49.53077,53.25177
536437.3,233.5372,268.9779,49.42343,53.36715
536450.8,232.5179,269.9449,49.29957,53.46555
536468.1,231.735,270.701,49.20401,53.54218
536484.7,230.981,271.5481,49.11163,53.6277
536501.2,230.2275,272.4997,49.01896,53.72335
536523.3,229.4861,273.4736,48.92744,53.8208
536534.1,228.7006,274.1347,48.83012,53.88669
536550.3,228.0959,274.371,48.75494,53.91019
536568.4,227.6359,274.5355,48.69759,53.92654
536584.1,227.1979,274.8401,48.64287,53.95677
536600.8,226.7992,274.7587,48.59295,53.9487
536618.3,226.4171,274.7419,48.54501,53.94703
536637.4,226.2856,274.7039,48.52851,53.94326
536653.6,226.2969,274.5683,48.52992,53.9298
536670.3,226.2428,274.6367,48.52312,53.93659
536687.1,226.0613,274.7249,48.5003,53.94535
536699.7,225.8375,274.8099,48.47214,53.95378
536716.3,225.694,274.6445,48.45407,53.93736
536733.2,225.5918,274.5826,48.44117,53.93122
536749.9,225.5582,274.5994,48.43694,53.93289
536767.7,225.509,274.7045,48.43075,53.94332
536784.4,225.4483,274.887,48.42308,53.96142
536805.4,225.4274,274.9834,48.42045,53.97098
