Time Stamp(ms),Intersection,,Angle,
,x,y,x,y
647832.3,320.888,242.2314,58.06594,50.45499
647850.7,320.4691,241.4566,58.03232,50.36483
647869.4,320.2707,241.022,58.01639,50.31412
647886.2,320.3275,240.8961,58.02095,50.29941
647902.8,320.3393,240.7999,58.0219,50.28815
647920.3,320.481,240.5978,58.03328,50.26451
647934,320.8687,240.3664,58.06439,50.23742
647950.4,321.3291,240.2658,58.10125,50.22561
647970.3,321.9091,240.0972,58.14759,50.20584
647986.6,322.3182,239.9019,58.18019,50.1829
648000.6,322.8481,239.325,58.22235,50.11505
648017,323.8162,238.8454,58.2991,50.05848
648033.4,324.6569,238.5123,58.36548,50.01911
648050.4,325.4292,238.2477,58.42624,49.9878
648067.3,326.2798,237.8985,58.49291,49.94641
648086,326.8027,237.7345,58.53378,49.92695
648102.3,327.2213,237.609,58.56643,49.91205
648117.5,327.6288,237.8072,58.59815,49.93557
648133.7,328.1033,237.4654,58.63501,49.89498
648151.9,328.2802,237.3247,58.64874,49.87824
648170,328.2885,237.4916,58.64938,49.8981
648186.6,328.2743,237.6605,58.64828,49.91817
648201.9,328.1142,237.8428,58.63586,49.93981
648226.4,328.0245,238.0767,58.62889,49.96754
648241.4,327.8533,238.1722,58.6156,49.97886
648254,327.5643,238.2674,58.59313,49.99014
648270.5,327.0538,238.592,58.55337,50.02855
648287.6,326.6152,238.9171,58.51914,50.06694
648304.8,326.195,239.2733,58.48629,50.10895
648320.7,325.6422,239.6873,58.44296,50.15769
648336.8,325.1778,239.9109,58.40648,50.18397
648352.6,324.6709,240.1427,58.36658,50.21118
648368.4,324.1956,240.3938,58.32909,50.24062
648387.9,323.8851,240.6303,58.30455,50.26832
648403.9,323.6738,240.9438,58.28783,50.30498
648419.9,323.6926,241.3801,58.28932,50.35591
648435,323.6655,241.9168,58.28717,50.41842
648451.8,323.7079,242.6489,58.29053,50.50343
648469.4,323.7873,243.7186,58.29681,50.62707
648488,323.9519,244.8417,58.30983,50.75618
648504.8,324.2677,246.1466,58.33478,50.90532
648520.9,324.6161,247.4169,58.36226,51.04958
648538.2,324.9444,248.6849,58.38812,51.1927
648551.9,325.7174,250.422,58.44886,51.38732
648570.9,326.7124,252.6017,58.52673,51.62922
648593,327.4841,254.4042,58.58689,51.82732
648605.6,328.1036,256.0765,58.63504,52.00957
648621.4,328.5188,258.1511,58.66723,52.23362
648639.7,329.017,260.5197,58.70578,52.48669
648656.1,329.641,263.6054,58.75395,52.81205
648670.5,330.3832,267.6764,58.81106,53.23398
648687.7,331.0703,271.1674,58.86377,53.5893
648702.4,331.8191,274.2877,58.92103,53.90191
648720.1,332.9001,278.1084,59.00336,54.27842
648734.9,334.0141,281.4321,59.08779,54.60046
648751.4,334.9509,284.6406,59.15847,54.90657
648768.2,335.6017,287.3775,59.2074,55.16407
648784.5,336.1287,289.8945,59.24692,55.39797
648803.3,336.2126,291.7649,59.25321,55.57001
648819.6,336.3841,293.7108,59.26604,55.74741
648834.4,336.7589,295.7318,59.29406,55.92997
648852,336.9737,297.1595,59.3101,56.0579
648867.7,337.0135,298.2973,59.31307,56.15925
648885.1,336.6656,298.9998,59.2871,56.22156
648902.3,335.8589,299.6181,59.2267,56.27624
648918.8,335.287,300.3112,59.18376,56.33734
648935.4,334.7474,300.3599,59.14315,56.34163
648952.9,334.3317,300.1859,59.11179,56.32631
648970,333.7768,299.8294,59.06984,56.29489
648987.1,332.9247,299.2131,59.00522,56.24044
649003.8,332.1949,298.744,58.94969,56.1989
649020.2,331.5688,298.2422,58.90192,56.15435
649037.5,331.2462,297.9364,58.87724,56.12716
649053.1,331.0115,297.7322,58.85927,56.10898
649070.4,330.7673,297.6152,58.84055,56.09856
649087.2,330.5316,297.4785,58.82246,56.08636
649103.4,330.2903,297.4372,58.80392,56.08268
649119.8,330.0274,297.3667,58.78371,56.0764
649137,329.8774,297.2826,58.77216,56.06889
649152.4,329.716,297.172,58.75972,56.05902
649170.1,329.5745,297.0211,58.74882,56.04553
649186.9,329.5117,296.8794,58.74398,56.03287
649203.8,329.431,296.7469,58.73775,56.02102
649220.7,329.3163,296.6482,58.7289,56.01218
649236.6,329.2224,296.6157,58.72165,56.00927
649251.8,329.1291,296.6305,58.71444,56.0106
649271,329.0938,296.5409,58.71172,56.00257
649288.6,329.0228,296.4171,58.70623,55.99148
649303.5,328.8723,296.3311,58.69459,55.98377
649319.8,328.7329,296.307,58.68381,55.98161
649339.3,328.5966,296.3126,58.67325,55.98211
649353.3,328.3947,296.237,58.65762,55.97533
649370.8,328.2227,296.1641,58.64428,55.9688
649386.8,327.8713,296.2303,58.617,55.97473
649403.6,327.5175,296.2246,58.58949,55.97422
649420.3,327.1083,296.2633,58.55762,55.97769
649436.3,326.4886,296.3575,58.50925,55.98613
649453.4,325.9852,296.3322,58.46985,55.98386
649470.3,325.3377,296.42,58.41906,55.99174
649489.6,324.5372,296.4827,58.35604,55.99736
649503.4,323.6389,296.4624,58.28506,55.99554
649519,322.074,296.0334,58.16074,55.95707
649535.7,320.1506,295.3995,58.00673,55.90007
649552.8,317.8676,294.6324,57.82219,55.83086
649571.3,314.8321,293.8843,57.57387,55.76315
649586.3,312.2408,293.3493,57.35917,55.71458
649601.3,309.6036,292.9094,57.13805,55.67454
649618.6,306.7616,291.9791,56.89677,55.58961
649635,303.9907,291.5258,56.65849,55.5481
649652.6,300.7832,290.8624,56.37884,55.48718
649669.9,297.9126,290.4168,56.12504,55.44616
649685.9,294.8025,290.1322,55.84624,55.41991
649703.4,291.9473,289.71,55.58671,55.38091
649722.2,289.4052,289.2545,55.35271,55.33875
649736.5,286.744,288.7559,55.10476,55.2925
649751.5,283.8764,288.3305,54.83408,55.25295
649769.4,281.1733,288.024,54.57557,55.2244
649785.8,278.4035,287.4836,54.30722,55.17398
649803.3,275.8452,286.7467,54.05622,55.10501
649821.7,272.7419,285.8054,53.74762,55.01656
649837.4,269.5631,285.1014,53.42675,54.95016
649857.6,266.5513,284.3191,53.1182,54.8761
649873.6,264.7092,283.9381,52.92727,54.83994
649886.1,262.2224,283.0539,52.66683,54.75577
649902.9,259.4488,282.381,52.37263,54.69147
649923.4,257.4354,281.8295,52.15658,54.63862
649936.9,255.574,281.0558,51.95497,54.56425
649952,253.7422,280.4095,51.75477,54.50191
649970.3,252.1804,280.0956,51.58266,54.47157
649986.4,250.5398,279.5015,51.40046,54.41402
650009.1,249.4539,278.828,51.27906,54.34858
650019.7,248.28,278.0787,51.1471,54.27553
650041.6,247.1241,277.0446,51.0164,54.17427
650064.7,246.2092,275.8158,50.91245,54.05332
650079.4,245.9776,275.1004,50.88606,53.98257
650090.1,246.2289,274.4185,50.91468,53.91492
650107.3,246.8653,274.0612,50.98705,53.87938
650126.3,247.9947,273.64,51.1149,53.83741
650142.7,249.0517,273.0543,51.23392,53.7789
650156.7,250.0113,272.4861,51.34146,53.72198
650173.9,251.3329,272.0413,51.48872,53.67732
650193.2,252.3221,271.7799,51.59833,53.65103
650206.9,253.3875,271.6685,51.7158,53.63983
650223.4,254.3581,271.905,51.82228,53.66362
650241,254.986,271.9902,51.8909,53.67219
650256.8,255.4418,271.7585,51.94058,53.64888
650273.6,255.5517,271.7252,51.95254,53.64553
650291.4,255.6022,271.7089,51.95803,53.64389
650309.8,255.6069,271.5987,51.95854,53.63279
650323.8,255.3989,271.171,51.93591,53.58967
650341.8,254.696,270.7519,51.85923,53.54733
650357.9,254.0146,270.5274,51.78466,53.52461
650371.6,252.8788,270.3703,51.65978,53.50869
650392.7,251.8939,270.1501,51.55095,53.48637
650405.9,250.9157,269.8136,51.44234,53.45222
650423.9,249.629,269.4976,51.29868,53.42009
650439.4,248.4469,269.4401,51.1659,53.41424
650454.6,247.0996,269.4603,51.01363,53.41629
650472.4,246.5925,269.7414,50.95605,53.44488
650489.2,246.4128,269.7036,50.93562,53.44104
650506.4,246.5192,269.5843,50.94773,53.42891
650522.9,246.7213,269.729,50.9707,53.44362
650540.3,247.5567,269.427,51.06541,53.4129
650557.5,248.4759,268.8977,51.16917,53.35897
650572.8,249.7814,267.4433,51.31574,53.21005
650591.1,251.7432,266.9272,51.53424,53.15695
650607.3,254.3247,266.4835,51.81862,53.1112
650623.4,257.5314,265.2939,52.16693,52.98806
650640.9,260.6073,264.8843,52.49599,52.94549
650656.1,263.922,264.5856,52.84517,52.91441
650671.7,267.9994,263.5533,53.26711,52.8066
650689.4,271.8463,262.6169,53.65771,52.70835
650706.1,276.4776,262.3728,54.11856,52.68266
650722.6,281.1865,262.4372,54.57684,52.68945
650742.2,286.1281,263.1725,55.04692,52.7667
650758.3,290.6628,263.9429,55.46881,52.84735
650774.6,295.5103,265.0446,55.91005,52.96217
650792.7,299.0738,265.6397,56.22812,53.02393
650806.6,303.0702,266.4548,56.57866,53.10825
650823.8,306.5622,267.3245,56.87972,53.19784
650839.8,309.7829,268.5845,57.15317,53.32699
650855.4,312.8094,270.2018,57.4065,53.49161
650872,315.5986,271.4138,57.63689,53.61415
650889.6,317.5402,272.2226,57.79557,53.69554
650907.3,319.1186,272.7743,57.92355,53.75087
650922.9,320.4405,273.5314,58.03003,53.82657
650940.1,321.9378,274.7751,58.14988,53.95033
650958.6,322.9657,275.9626,58.23169,54.06781
650976.3,323.22,275.9652,58.25187,54.06807
650992.3,323.4796,276.6198,58.27245,54.13255
651008.7,323.2716,277.1925,58.25597,54.18879
651025.6,322.2854,277.842,58.17759,54.25239
651042.6,321.5968,278.3296,58.12265,54.30002
651058.3,321.0341,279.0247,58.07764,54.36771
651073.8,320.3569,279.6185,58.02331,54.42536
651091.8,319.7497,280.0258,57.97446,54.46481
651108.3,319.2039,280.353,57.93044,54.49646
651128.4,318.8251,280.5614,57.89982,54.51659
651142.3,318.4585,280.6068,57.87014,54.52097
651159.6,318.1936,280.6332,57.84866,54.52352
651175.8,318.0593,280.5224,57.83776,54.51282
651192.1,318.0731,280.1874,57.83888,54.48045
651210.8,318.1018,280.0213,57.84121,54.46439
651226.5,318.2749,279.925,57.85525,54.45506
651245.6,318.4895,279.7546,57.87265,54.43856
651260.8,318.7757,279.7191,57.89582,54.43512
651274.4,319.1299,279.8369,57.92447,54.44653
651290.3,319.6033,279.9023,57.96267,54.45286
651308.6,320.2014,280.0059,58.01081,54.46289
651326.1,320.8707,279.974,58.06454,54.45981
651343.8,321.7215,279.9206,58.13262,54.45464
651358.8,322.608,279.941,58.20326,54.45661
651373.4,323.735,279.9084,58.29267,54.45346
651393.3,325.2025,280.251,58.40842,54.4866
651408.4,327.2459,280.783,58.56835,54.53796
651426,329.2103,281.2083,58.72071,54.57893
651444.1,331.4571,281.5836,58.89337,54.61501
651460.8,334.308,282.1284,59.11,54.66728
651477.1,337.1877,282.881,59.32607,54.73926
651493.6,340.2487,283.5696,59.55276,54.8049
651509.7,343.9159,284.1024,59.82039,54.85555
651527.2,347.2965,284.4681,60.06336,54.89024
651543.7,351.033,284.6066,60.3278,54.90335
651561.8,354.3546,284.6516,60.55934,54.90761
651578.2,358.0146,284.6047,60.81068,54.90317
651595.1,361.2635,284.5208,61.03053,54.89523
651609.7,364.7721,284.0833,61.26459,54.85373
651627.9,368.0879,283.7938,61.48262,54.82623
651645.2,370.8514,283.8071,61.66204,54.82749
651660.5,373.8342,283.539,61.85337,54.80199
651676.8,376.2264,283.2462,62.00512,54.7741
651691.9,378.5276,282.5752,62.14968,54.71005
651708.6,380.9219,281.2276,62.29864,54.58079
651728.9,382.9761,280.0428,62.42528,54.46647
651743.4,384.7786,278.9617,62.53552,54.36158
651761.8,385.5181,277.1634,62.58051,54.18594
651778.3,386.3171,276.1195,62.62897,54.08328
651793.6,386.9321,275.3723,62.66616,54.00949
651811.9,387.4602,274.5858,62.69803,53.93154
651829,387.814,274.16,62.71934,53.88921
651845.1,387.6685,274.308,62.71058,53.90393
651861.9,387.8496,274.581,62.72148,53.93106
651878.5,387.583,274.5558,62.70543,53.92856
651893.9,387.6461,274.5695,62.70923,53.92991
651911.3,387.6296,274.6816,62.70824,53.94104
651931.2,387.4389,274.6651,62.69674,53.93941
651945.3,387.5568,275.3924,62.70385,54.01148
651961.9,387.805,276.5168,62.7188,54.12241
651978.8,388.0952,277.2731,62.73625,54.1967
651993.9,388.6826,277.7258,62.77153,54.24103
652010.9,389.3488,277.9901,62.81142,54.26687
652030.8,390.0609,277.7897,62.85395,54.24728
652046.3,390.7228,277.6263,62.89338,54.2313
652059.7,391.3824,277.3976,62.93255,54.2089
652075.9,391.9708,276.7477,62.96741,54.14512
652093.3,392.6048,275.9044,63.00488,54.06207
652117.1,393.3486,275.2468,63.04872,53.99707
652129.2,394.045,274.8722,63.08964,53.95995
652143,394.7464,274.4389,63.13075,53.91695
652159.1,395.1428,273.8689,63.15392,53.86022
652175.5,395.9224,273.184,63.1994,53.79187
652192,396.5864,272.4585,63.23802,53.71922
652209.1,397.2648,271.4766,63.27737,53.62049
652225.8,397.8391,270.7319,63.3106,53.5453
652241.5,398.4317,270.1086,63.34481,53.48217
652258.7,399.0089,269.3267,63.37805,53.4027
652274.6,399.6175,268.8934,63.41302,53.35853
652291.3,400.1652,268.4645,63.44441,53.31472
652311.8,400.8727,267.8774,63.48487,53.25461
652325.7,401.2059,267.5826,63.50388,53.22435
652342.9,401.7401,267.3118,63.53431,53.19653
652359.6,402.0717,266.9734,63.55316,53.16172
652375,402.3072,266.3924,63.56654,53.1018
652392.9,402.5002,266.0147,63.57749,53.06276
652408.6,402.6143,265.6718,63.58396,53.02726
652425.6,402.567,264.8312,63.58127,52.93997
652442.1,402.2079,263.7581,63.5609,52.82803
652463.6,401.9216,263.0329,63.54463,52.75206
652475.9,401.5769,262.0189,63.52501,52.64537
652491.4,400.8885,260.802,63.48576,52.51665
652508.9,399.8093,259.2567,63.42402,52.35211
652525.8,398.7435,257.343,63.36278,52.14662
652542.9,397.4499,255.1086,63.28809,51.90427
652558.4,395.7993,252.1975,63.19223,51.58456
652576.3,394.3563,249.8506,63.1079,51.32348
652592.4,392.4982,247.1063,62.99859,51.01439
652609.7,390.7808,244.7831,62.89682,50.74947
652626.4,388.9798,241.9531,62.78933,50.42264
652644.2,387.5755,239.8796,62.70498,50.18028
652659.9,386.0436,237.7092,62.6124,49.92394
652675.8,383.1987,234.6206,62.43893,49.55439
652692.7,380.4664,232.0168,62.27042,49.23844
652710.3,378.0981,230.1537,62.12281,49.00986
652730,375.4829,227.5873,61.95812,48.69153
652756,375.0277,227.0094,61.92927,48.61928
652766.1,374.2839,226.1102,61.88201,48.50646
652781.6,373.8104,225.2729,61.85185,48.40095
652794.2,373.308,224.3241,61.81979,48.28085
652808.8,372.3195,222.8186,61.7565,48.08914
652825.3,371.0863,221.3387,61.67719,47.89926
652847.1,369.6489,219.8515,61.58422,47.70705
652862.6,368.4887,218.8023,61.50877,47.57059
652876.9,367.3391,217.6696,61.43365,47.42246
652892.4,366.1346,216.4716,61.35455,47.26488
652910.4,364.9723,215.2779,61.27784,47.10694
652927.6,363.9236,214.1911,61.20831,46.96231
652943.4,362.7803,212.8983,61.13214,46.78925
652964.6,362.0703,211.992,61.08466,46.66726
652977.4,361.4627,211.2999,61.04392,46.57372
652992.4,360.8951,210.7048,61.00576,46.49305
653009.4,360.3904,210.0262,60.97176,46.40075
653026.3,359.944,209.3213,60.94161,46.30455
653046.3,359.8153,208.6803,60.93291,46.21676
653060.8,359.7412,208.035,60.9279,46.12812
653077.6,360.3972,207.4033,60.97221,46.04106
653093.4,361.5024,206.8832,61.04659,45.96917
653110.3,363.2577,206.9067,61.16399,45.97242
653127.9,366.1234,207.1717,61.35381,46.00908
653144.5,368.6898,207.2798,61.52187,46.02401
653164.1,370.2328,207.1767,61.62206,46.00976
653179,371.5036,207.1307,61.70407,46.0034
653193.5,372.4665,207.0771,61.76593,45.99599
653210.3,372.9467,207.2067,61.79669,46.01391
653227.5,373.4549,207.3,61.82917,46.02679
653243.8,373.9278,207.4028,61.85934,46.04099
653261.3,374.1548,207.6352,61.8738,46.07305
653278.8,374.2869,207.5969,61.88221,46.06777
653293.3,374.4029,207.6947,61.88958,46.08125
653311.4,374.482,207.5578,61.89462,46.06238
653327.5,374.5346,207.4864,61.89796,46.05252
653343.6,374.5707,207.6817,61.90025,46.07946
653361.9,374.6983,207.5921,61.90836,46.06711
653377.5,374.8271,207.6072,61.91654,46.06919
653394.6,375.1129,207.7816,61.93468,46.09323
653412.4,375.3704,207.8144,61.951,46.09774
653428.8,375.4661,207.82,61.95705,46.09852
653447.1,375.6276,208.1334,61.96727,46.14166
653465.3,375.9718,208.678,61.98904,46.21645
653481.4,376.27,208.9478,62.00787,46.25343
653499.1,376.4994,209.1872,62.02234,46.2862
653515.4,376.5847,209.457,62.02772,46.3231
653532.6,376.3255,209.5467,62.01138,46.33535
653548.4,375.9774,209.5611,61.9894,46.33731
653563.3,375.4515,209.6177,61.95613,46.34504
653580,374.8212,209.4993,61.91617,46.32887
653599.4,374.1293,209.4667,61.87217,46.32442
653614.8,373.1073,209.1492,61.80696,46.281
653633.1,372.2681,208.8642,61.75321,46.24198
653648.5,371.3498,208.5173,61.69417,46.1944
653663.7,370.4255,208.0549,61.63452,46.13086
653683.5,369.3307,207.4252,61.56356,46.04409
653698.6,368.2181,206.8185,61.49112,45.96022
653712.9,367.0736,206.1789,61.41625,45.87153
653730.3,365.9254,205.6003,61.34077,45.79106
653746.4,364.7467,204.9971,61.26291,45.70691
653763.4,363.5679,204.5094,61.18465,45.6387
653779.9,362.254,204.1223,61.09696,45.58443
653795.3,360.8383,203.746,61.00194,45.53159
653812.5,359.5628,203.3945,60.91583,45.48212
653829.8,358.3597,203.1595,60.83418,45.44901
653846.1,357.2307,202.9798,60.75718,45.42366
653865.1,356.3022,203.0406,60.69358,45.43224
653883.5,355.259,202.9913,60.62181,45.42529
653899.4,354.3643,202.9585,60.56001,45.42065
653913.6,353.1854,203.0506,60.47821,45.43365
653933.3,351.938,203.0922,60.39121,45.43951
653946.5,350.3687,203.2819,60.2811,45.46626
653964.6,348.738,203.4681,60.16589,45.49249
653982.9,346.6771,203.1694,60.01911,45.4504
653997.8,344.6749,203.9964,59.87526,45.56675
654013.1,341.6275,204.2337,59.65389,45.60005
654031.6,338.0792,204.8999,59.3924,45.69333
654048.4,333.7418,205.8346,59.06719,45.82368
654065.3,329.5404,206.3499,58.74619,45.89528
654080.8,324.3875,207.3695,58.34424,46.0364
654097.6,318.8126,209.4321,57.89881,46.31969
654113.6,313.0314,210.8583,57.42494,46.51388
654131.2,306.5335,212.9052,56.87727,46.79017
654147.3,300.4748,214.6518,56.35174,47.02371
654164.3,295.0965,216.1604,55.87276,47.2238
654184,289.1033,217.8181,55.32474,47.44194
654197.6,283.965,219.1426,54.8425,47.61494
654214.4,277.4529,220.064,54.21432,47.73461
654232.4,271.6817,221.0804,53.64115,47.86598
654249.1,266.3124,221.9845,53.09354,47.9823
654263.1,261.0598,222.6573,52.54398,48.0685
654280.1,253.5393,223.9232,51.73248,48.22994
654316.4,247.6376,225.1182,51.07455,48.3814
654329.4,244.3632,225.6415,50.70126,48.44744
654340.9,241.2142,226.0554,50.33656,48.49957
654349.4,237.5857,226.5887,49.90928,48.56656
654363.1,233.5446,227.5602,49.42433,48.68813
654379.5,229.2569,228.4535,48.89908,48.79942
654395.1,224.4743,229.9017,48.29991,48.97879
654413.6,220.3526,231.4411,47.77198,49.16804
654430.3,216.1843,233.5896,47.22696,49.42978
654449.1,212.8754,235.1842,46.78617,49.62225
654463.4,209.8858,236.6313,46.38162,49.79561
654480.3,207.0984,237.3179,45.99894,49.87744
654498.6,204.5069,237.8312,45.63835,49.93843
654513.2,202.4935,238.2964,45.35495,49.99356
654529.8,200.9936,238.6216,45.14196,50.03204
654547.1,199.7027,239.1286,44.95739,50.0919
654564.7,199.1352,239.2366,44.87586,50.10463
654580.9,199.218,239.3135,44.88777,50.11369
654597.4,199.1125,239.4194,44.8726,50.12616
654612.7,199.1607,239.3567,44.87952,50.11879
654630.9,199.2158,239.1932,44.88745,50.09952
654646.9,199.7895,239.1755,44.96983,50.09742
654664.1,200.1782,238.9602,45.02551,50.07203
654680.8,200.3681,238.6202,45.05268,50.03188
654696.7,199.9685,238.1513,44.99548,49.97639
654712.9,198.5267,237.9622,44.78819,49.95398
654731.4,197.5136,238.3999,44.64163,50.00582
654747.2,196.2666,239.149,44.46021,50.09431
654764.5,195.7389,239.852,44.38309,50.17704
654781.3,195.6362,240.6147,44.36807,50.26649
654797.8,195.7739,240.8576,44.38822,50.29491
654813.8,195.9158,241.1267,44.40897,50.32635
654831.1,195.9789,241.41,44.4182,50.35941
654847.6,196.2699,241.5447,44.46069,50.3751
654865.4,196.7063,241.5304,44.5243,50.37344
654880.9,197.3313,241.3623,44.61517,50.35384
654898.4,197.8288,241.1617,44.68731,50.33044
654913.3,198.142,240.8593,44.73262,50.29511
654931.8,198.5081,240.4724,44.7855,50.24983
654948.1,199.0986,240.108,44.87059,50.2071
654967.9,199.9108,240.0155,44.98722,50.19625
654982.1,200.4812,239.9021,45.06884,50.18293
654998.8,201.0172,239.8213,45.14533,50.17344
655014.6,201.5165,239.5275,45.2164,50.13889
655032.5,201.9416,239.1515,45.27677,50.0946
655048.3,202.3076,238.9025,45.32864,50.06522
655066.2,202.4375,238.7782,45.34703,50.05054
655085.6,202.4667,238.7473,45.35115,50.04689
655103.6,202.261,238.854,45.32204,50.0595
655120.9,202.2053,238.9887,45.31415,50.0754
655136.1,202.2475,239.1811,45.32012,50.09809
655149.8,202.2257,239.3308,45.31705,50.11573
655169.6,202.2501,239.4103,45.32049,50.12509
655190.8,202.4269,239.554,45.34552,50.14201
655201.6,202.7316,239.5759,45.38862,50.14458
655217.4,203.2242,239.5406,45.45813,50.14043
655233.7,204.1465,239.4734,45.58782,50.13252
655251.3,205.3711,239.3667,45.75911,50.11996
655269.8,207.146,239.2664,46.00552,50.10814
655285.9,208.9619,239.125,46.25536,50.09147
655303.8,211.9107,238.6033,46.65628,50.02988
