Time Stamp(ms),Intersection,,Angle,
,x,y,x,y
1432250,315.4966,239.7221,57.62852,50.16178
1432268,315.4889,239.2318,57.62788,50.10406
1432285,315.3095,238.7944,57.61315,50.05246
1432301,315.0998,238.4633,57.5959,50.01332
1432319,314.8304,238.1479,57.57373,49.97598
1432332,314.5056,237.8458,57.54696,49.94016
1432353,314.2127,237.4873,57.52278,49.89759
1432367,313.8885,236.777,57.49598,49.813
1432383,313.6414,236.0151,57.47552,49.72194
1432400,313.3956,235.4644,57.45516,49.65591
1432417,313.1817,235.0683,57.43742,49.60831
1432433,313.0439,234.6256,57.42598,49.555
1432455,313.0559,234.5345,57.42697,49.54401
1432469,313.1402,234.6058,57.43397,49.55261
1432486,313.3602,234.967,57.45222,49.59613
1432502,313.5506,235.3345,57.46801,49.64031
1432518,313.7339,235.847,57.48319,49.70181
1432532,313.9341,236.2807,57.49975,49.75372
1432550,313.9982,236.4728,57.50505,49.77669
1432566,314.0445,236.4301,57.50888,49.77159
1432586,313.9697,236.0989,57.5027,49.73198
1432600,313.7979,235.7878,57.48848,49.69471
1432619,313.5638,235.5467,57.4691,49.6658
1432634,313.3284,235.1235,57.44959,49.61495
1432651,313.0896,234.5948,57.42977,49.55129
1432669,312.8422,234.4001,57.40922,49.52779
1432684,312.6147,234.175,57.3903,49.50061
1432702,312.3858,233.9882,57.37125,49.47803
1432720,312.1988,233.6964,57.35566,49.44271
1432734,311.9968,233.4998,57.33882,49.41889
1432755,311.7135,233.1161,57.31517,49.37234
1432770,311.4148,232.7244,57.2902,49.32471
1432785,311.081,232.1978,57.26225,49.26054
1432803,310.7339,231.6062,57.23314,49.18825
1432823,310.3293,230.7676,57.19916,49.08541
1432841,309.799,229.8975,57.15453,48.97826
1432861,309.2552,228.8567,57.10864,48.84949
1432881,308.652,227.8949,57.05761,48.7299
1432898,308.0482,227.1574,57.00639,48.6378
1432916,307.3583,226.1382,56.94769,48.50997
1432935,306.6543,225.0462,56.8876,48.37231
1432954,305.9867,223.7788,56.83044,48.21157
1432972,305.3864,222.1214,56.77889,47.99986
1432990,304.9033,220.2162,56.7373,47.75431
1433010,304.4942,217.6552,56.70201,47.42058
1433031,304.3125,214.7858,56.68632,47.04155
1433049,304.3764,211.6908,56.69184,46.62659
1433067,304.5865,208.6505,56.70998,46.21268
1433084,305.0824,205.1318,56.75273,45.72572
1433105,305.6697,201.8603,56.80323,45.26524
1433122,306.4026,198.5194,56.86607,44.78714
1433141,307.1284,195.2461,56.92809,44.3109
1433161,307.6281,191.8814,56.97067,43.81318
1433182,308.101,188.6583,57.01088,43.32848
1433200,308.8828,185.6156,57.07716,42.86372
1433218,310.1364,182.1562,57.18294,42.32666
1433237,311.5216,179.1346,57.29913,41.84995
1433254,313.0578,175.6332,57.42713,41.28851
1433280,315.1089,171.2083,57.59665,40.5649
1433296,316.4803,168.1666,57.70913,40.05822
1433310,318.6407,163.8787,57.8849,39.33096
1433332,320.4799,159.932,58.0332,38.64793
1433349,322.5067,155.5227,58.19521,37.86913
1433368,324.4902,151.28,58.35234,37.10387
1433386,326.4895,147.4821,58.50932,36.40545
1433405,328.2885,144.1517,58.64938,35.78249
1433422,329.9925,140.6597,58.78102,35.11866
1433441,331.646,137.2265,58.90781,34.45528
1433462,333.1082,134.3141,59.01916,33.88414
1433479,334.4727,131.8307,59.12243,33.39101
1433499,335.6535,129.9578,59.21129,33.01537
1433517,336.7074,128.2974,59.29021,32.67964
1433535,337.7237,126.7014,59.36598,32.35455
1433552,338.475,125.4683,59.42177,32.10175
1433569,339.2014,124.4071,59.47554,31.88307
1433588,340.0348,123.2008,59.53701,31.63324
1433605,340.8709,122.1385,59.59847,31.4121
1433625,341.7643,121.1661,59.66388,31.20876
1433642,342.7372,120.3281,59.73484,31.03282
1433663,343.9141,119.3641,59.82026,30.82962
1433682,345.1341,118.3075,59.90836,30.6059
1433700,346.3533,117.3187,59.99593,30.39561
1433720,347.6919,116.3415,60.09155,30.1869
1433739,348.8708,115.5447,60.17529,30.01604
1433755,349.9213,114.9414,60.24957,29.88629
1433769,351.1951,114.3623,60.33918,29.76142
1433788,352.5577,113.7707,60.43449,29.63353
1433808,353.7896,113.4974,60.52018,29.57434
1433826,355.2073,113.2784,60.61825,29.52686
1433849,356.6115,113.3307,60.71479,29.53822
1433867,357.9962,113.3028,60.80943,29.53215
1433882,359.504,113.5547,60.91185,29.58676
1433901,360.9965,113.9064,61.01258,29.66291
1433918,362.5146,114.1824,61.1144,29.72256
1433938,364.0648,114.5609,61.21769,29.80427
1433955,365.5655,114.8579,61.31704,29.86831
1433974,367.2699,115.1041,61.42912,29.92131
1433992,368.9243,115.1917,61.53714,29.94016
1434010,370.6889,115.3089,61.65154,29.96535
1434030,372.5353,115.2319,61.77035,29.9488
1434051,374.4535,115.1025,61.8928,29.92096
1434069,376.3492,114.924,62.01287,29.88255
1434085,378.2992,114.527,62.1354,29.79697
1434103,380.2255,114.0677,62.25547,29.69777
1434123,381.9008,113.4928,62.35912,29.57334
1434140,383.6203,112.8441,62.46477,29.43258
1434156,385.5135,112.1749,62.58023,29.28695
1434176,387.0912,111.6096,62.67577,29.16362
1434193,388.5796,111.0773,62.76535,29.04721
1434213,389.9155,110.7239,62.84528,28.96977
1434235,391.0697,110.2518,62.91399,28.86614
1434253,391.9583,109.9866,62.96667,28.80785
1434269,392.8427,109.6028,63.01891,28.72335
1434293,393.5389,109.1844,63.05991,28.63111
1434305,393.8504,108.7932,63.07822,28.54469
1434323,394.0568,108.3471,63.09034,28.44599
1434344,394.1489,107.9096,63.09574,28.34899
1434359,394.122,107.6685,63.09416,28.29548
1434380,393.8033,107.3201,63.07545,28.21802
1434399,393.5797,106.9003,63.06232,28.12458
1434416,393.1719,106.818,63.03832,28.10624
1434435,392.6658,107.1199,63.00848,28.17349
1434453,392.3632,107.092,62.99062,28.16727
1434470,392.0462,107.2589,62.97187,28.20441
1434488,391.7876,107.5264,62.95657,28.26389
1434505,391.5487,107.7764,62.94241,28.31944
1434524,391.2615,108.1312,62.92538,28.39814
1434543,391.1304,108.5804,62.91759,28.49763
1434560,390.9909,109.0112,62.90931,28.59286
1434581,390.7704,109.3199,62.8962,28.66099
1434600,390.5402,109.6164,62.88251,28.72636
1434616,390.2258,110.0521,62.86378,28.82225
1434637,389.8727,110.3452,62.84272,28.88666
1434655,389.6072,110.5395,62.82687,28.92932
1434671,389.3254,110.934,62.81002,29.01582
1434690,388.865,111.5861,62.78246,29.15847
1434706,388.4967,112.0768,62.76037,29.26557
1434727,388.1427,112.753,62.73911,29.41279
1434745,387.7413,113.4308,62.71496,29.55992
1434761,387.3904,114.0613,62.69382,29.69638
1434781,387.0433,114.8025,62.67288,29.85636
1434800,386.6587,115.4575,62.64964,29.99729
1434821,386.397,116.0617,62.63381,30.12696
1434837,386.211,116.4983,62.62255,30.22044
1434855,385.9289,117.0487,62.60545,30.33803
1434875,385.5759,117.5284,62.58402,30.44028
1434890,385.1443,117.9923,62.55778,30.53897
1434913,384.7184,118.3782,62.53185,30.62091
1434929,384.1512,118.4494,62.49724,30.63602
1434949,383.4436,118.6028,62.45395,30.66854
1434964,382.7335,118.727,62.41037,30.69485
1434984,381.9945,118.7967,62.3649,30.7096
1435001,380.9696,118.9013,62.30159,30.73176
1435022,379.7639,119.0084,62.22678,30.75443
1435043,378.9754,119.3923,62.17765,30.83558
1435057,377.9675,119.562,62.11462,30.87141
1435073,376.3952,119.7046,62.01577,30.90148
1435096,374.6638,119.9312,61.90617,30.94927
1435112,372.7355,119.913,61.78317,30.94543
1435135,370.242,119.7203,61.62265,30.9048
1435155,367.5121,119.5213,61.44497,30.86282
1435169,364.6535,119.334,61.25674,30.82326
1435188,360.8144,118.8586,61.00032,30.72272
1435207,357.2654,118.4614,60.75955,30.63856
1435223,353.6846,118.158,60.5129,30.57418
1435241,350.055,118.0231,60.259,30.54552
1435260,346.0445,117.734,59.97379,30.48405
1435278,341.8528,117.479,59.67035,30.42977
1435299,337.6364,117.1728,59.35949,30.36451
1435318,333.5222,116.7302,59.05056,30.27003
1435337,329.0812,116.3808,58.71074,30.19529
1435354,323.8795,115.9558,58.3041,30.10426
1435372,318.6058,114.9899,57.88207,29.89672
1435389,313.2581,112.9893,57.44376,29.46414
1435407,308.6571,111.1328,57.05805,29.05934
1435426,304.3975,109.6895,56.69366,28.74246
1435440,299.1519,107.7926,56.23502,28.32304
1435460,294.6249,106.2472,55.83019,27.97885
1435477,289.8959,104.9398,55.3981,27.68595
1435502,285.6084,103.9087,54.998,27.45383
1435519,281.8794,103.1431,54.64341,27.28086
1435535,277.7805,101.9973,54.24638,27.02098
1435556,274.1735,100.9215,53.89055,26.77586
1435574,270.3687,100.3277,53.50854,26.6401
1435594,267.392,100.0598,53.20478,26.57875
1435610,264.2104,99.53995,52.87528,26.45952
1435630,261.6073,98.9664,52.60192,26.32768
1435646,259.2682,98.75706,52.35334,26.27948
1435665,257.5323,98.95337,52.16703,26.32468
1435685,255.9918,99.1019,52.00038,26.35885
1435700,254.8218,99.27536,51.87297,26.39874
1435719,254.0565,99.51785,51.78925,26.45444
1435739,253.6912,99.99617,51.74916,26.56417
1435757,253.1213,100.6001,51.6865,26.70243
1435780,252.5173,101.1443,51.6199,26.82671
1435795,251.8242,101.4817,51.54323,26.90363
1435810,251.2597,101.7509,51.48059,26.96492
1435824,250.7881,102.0064,51.42813,27.02303
1435837,250.1974,102.4216,51.36225,27.11735
1435849,249.4299,102.6788,51.27636,27.17569
1435862,248.6273,102.9482,51.18621,27.23674
1435877,247.8075,103.4762,51.09376,27.35619
1435890,246.8978,103.8862,50.99074,27.44877
1435906,246.1068,104.0284,50.90078,27.48084
1435922,245.2601,104.2232,50.80411,27.52473
1435939,244.4225,104.4823,50.70807,27.58309
1435955,243.7015,104.7439,50.6251,27.64194
1435971,243.0192,104.6721,50.54629,27.62577
1435988,242.5021,104.9019,50.4864,27.67745
1436010,242.0777,105.0589,50.43712,27.71271
1436022,241.6251,105.032,50.38447,27.70667
1436038,241.2151,105.3795,50.33667,27.78465
1436057,240.8287,105.3822,50.29153,27.78523
1436074,240.4563,105.9109,50.24795,27.90366
1436091,240.1021,106.12,50.20641,27.95043
1436109,239.7249,106.1881,50.16211,27.96564
1436124,239.3863,106.0028,50.12226,27.92421
1436140,239.1195,106.593,50.09082,28.05606
1436156,238.9361,106.7905,50.06919,28.10011
1436173,238.6637,106.6301,50.03702,28.06433
1436189,238.2382,106.7806,49.98668,28.09789
1436206,237.8856,106.8513,49.94489,28.11366
1436223,237.5619,106.9127,49.90645,28.12734
1436239,237.283,107.2804,49.87328,28.20921
1436255,236.7912,107.3983,49.8147,28.23542
1436272,236.1217,107.4281,49.73471,28.24205
1436289,235.4889,107.5574,49.65886,28.27078
1436307,235.0092,107.5494,49.6012,28.26901
1436323,234.6509,107.8642,49.55805,28.33892
1436341,234.2151,107.9668,49.50546,28.36168
1436356,233.7108,108.3293,49.44446,28.44204
1436372,233.2253,108.7249,49.38559,28.52958
1436391,232.6791,109.0814,49.31919,28.60836
1436408,232.1619,109.4168,49.25616,28.68237
1436424,231.6702,109.7193,49.19609,28.74902
1436441,231.2195,109.9375,49.14089,28.79705
1436456,230.7655,110.1689,49.08516,28.84792
1436472,230.1203,110.492,49.00575,28.91889
1436490,229.502,110.5996,48.92941,28.9425
1436511,228.8355,111.1442,48.84686,29.06185
1436525,228.029,111.2963,48.7466,29.09513
1436539,227.1246,111.6616,48.6337,29.17497
1436556,225.8851,111.9713,48.47813,29.24256
1436573,224.796,111.852,48.34066,29.21654
1436592,223.5926,111.9446,48.18788,29.23673
1436609,221.993,112.1007,47.98339,29.27077
1436626,220.1826,111.9696,47.74997,29.24219
1436642,218.3401,111.6418,47.51025,29.17065
1436659,217.133,111.7541,47.352,29.19517
1436672,215.9656,112.0541,47.19805,29.26063
1436690,214.9902,112.5367,47.06873,29.36574
1436709,214.2154,113.0427,46.96556,29.47572
1436727,214.0036,113.7345,46.93727,29.6257
1436744,214.075,114.1932,46.94681,29.72491
1436760,214.4442,114.8307,46.99607,29.86243
1436776,215.1115,115.656,47.08485,30.03993
1436792,216.1051,116.3492,47.21649,30.18853
1436809,216.9211,117.3702,47.32413,30.40658
1436828,217.8281,118.1007,47.44324,30.56199
1436844,218.5106,119.1455,47.53252,30.78343
1436871,219.0381,120.2408,47.60133,31.01444
1436881,219.0781,120.6918,47.60654,31.10926
1436893,218.9992,121.3319,47.59626,31.2435
1436911,218.9037,121.8837,47.58381,31.35891
1436926,218.6298,122.4334,47.54808,31.47358
1436945,218.2961,123.1538,47.5045,31.62348
1436960,217.9845,123.6406,47.46373,31.72449
1436977,217.6246,124.3111,47.41656,31.86325
1436994,217.4162,125.1643,47.38922,32.03922
1437012,217.2584,125.9716,47.36848,32.2051
1437030,217.1495,126.4924,47.35417,32.31179
1437043,217.1193,126.9683,47.3502,32.40907
1437062,217.0887,127.5609,47.34617,32.52992
1437077,217.0677,128.1183,47.34342,32.64327
1437094,217.1931,128.7583,47.3599,32.7731
1437113,217.3764,129.2916,47.38398,32.88098
1437130,217.5436,129.6183,47.40594,32.94693
1437143,217.6383,129.8483,47.41836,32.9933
1437161,217.7507,130.2322,47.4331,33.07061
1437176,217.8185,130.6033,47.44199,33.1452
1437192,217.815,130.9774,47.44153,33.22026
1437209,217.8601,131.2771,47.44743,33.28032
1437227,217.8562,131.6269,47.44692,33.3503
1437242,217.8202,131.9424,47.4422,33.41332
1437259,217.7838,132.3261,47.43743,33.48984
1437277,217.6231,132.779,47.41637,33.57998
1437292,217.3887,133.2122,47.3856,33.66604
1437311,217.1295,133.4419,47.35154,33.71159
1437327,216.9467,133.6705,47.32749,33.75689
1437344,216.7878,133.9564,47.30656,33.81346
1437361,216.7012,134.1402,47.29516,33.8498
1437377,216.5987,134.3015,47.28165,33.88165
1437398,216.4619,134.7767,47.2636,33.97538
1437411,216.3998,134.9215,47.25542,34.00389
1437428,216.3134,135.1548,47.24401,34.0498
1437444,216.3142,135.5169,47.24411,34.12096
1437461,216.384,135.7174,47.25333,34.16031
1437477,216.4711,136.0089,47.26482,34.21744
1437497,216.599,136.2619,47.28168,34.26698
1437511,216.7061,136.7406,47.2958,34.36053
1437527,217.0071,137.2419,47.33544,34.45829
1437543,217.2333,137.5093,47.36519,34.51033
1437560,217.5151,137.8044,47.4022,34.5677
1437576,217.7738,138.1896,47.43613,34.64246
1437593,217.9693,138.3698,47.46173,34.67738
1437611,218.1299,138.6411,47.48276,34.7299
1437627,218.2524,138.9158,47.49878,34.78304
1437644,218.3314,139.2081,47.50912,34.83947
1437660,218.3612,139.4797,47.513,34.89186
1437677,218.3373,139.6253,47.50988,34.91991
1437692,218.2892,139.6907,47.50359,34.9325
1437711,218.2321,139.9406,47.49613,34.98059
1437726,218.1974,140.27,47.49159,35.0439
1437743,218.1456,140.4873,47.48481,35.08561
1437761,218.1499,140.8685,47.48538,35.15866
1437776,218.2037,141.1046,47.49242,35.20386
1437793,218.2106,141.1377,47.49331,35.21018
1437811,218.2654,141.3147,47.50048,35.24402
1437828,218.3356,141.3669,47.50966,35.25399
1437844,218.3783,141.4343,47.51524,35.26686
1437862,218.3969,141.468,47.51767,35.2733
1437878,218.414,141.6795,47.51991,35.31366
1437894,218.4165,141.6086,47.52024,35.30014
1437912,218.3952,141.5119,47.51746,35.28167
1437928,218.3607,141.6879,47.51295,35.31526
1437943,218.306,141.7228,47.50579,35.32192
1437961,218.3367,142.2603,47.5098,35.42431
1437977,218.3675,142.5041,47.51383,35.47065
1437994,218.4209,142.6807,47.52081,35.50419
1438011,218.3255,142.6733,47.50834,35.50278
1438027,218.2289,142.8198,47.49571,35.5306
1438044,218.2806,142.9709,47.50248,35.55926
1438064,218.308,142.9741,47.50605,35.55986
1438077,218.3537,143.1628,47.51203,35.59562
1438093,218.4235,143.251,47.52114,35.61232
1438112,218.4514,143.3878,47.5248,35.63823
1438127,218.5758,143.5648,47.54103,35.6717
1438144,218.7388,144.298,47.56232,35.81007
1438162,218.854,144.5845,47.57734,35.86402
1438178,218.896,145.0002,47.5828,35.94214
1438194,218.983,145.2965,47.59415,35.99774
1438211,219.0112,145.6318,47.59782,36.06057
1438230,219.0683,145.9448,47.60526,36.11913
1438245,219.104,146.3441,47.60991,36.1937
1438263,219.1096,146.5179,47.61064,36.22611
1438279,219.1407,146.6456,47.61468,36.24991
1438293,219.1351,147.0827,47.61395,36.33128
1438313,219.2505,147.4607,47.62897,36.40148
1438331,219.3133,147.7821,47.63714,36.46107
1438347,219.3662,147.8539,47.64403,36.47438
1438365,219.4006,148.3154,47.64849,36.55978
1438382,219.4028,148.6254,47.64879,36.61704
1438398,219.3174,148.939,47.63768,36.67487
1438415,219.3073,149.2368,47.63636,36.72972
1438432,219.3143,148.3652,47.63727,36.56898
1438449,219.3309,148.352,47.63944,36.56654
1438466,219.309,148.2394,47.63659,36.54573
1438482,219.3633,148.2425,47.64365,36.54631
1438498,219.268,148.0741,47.63125,36.51515
1438513,219.2284,147.9278,47.6261,36.48807
1438532,219.1787,147.7473,47.61963,36.45464
1438549,219.0956,147.4472,47.60881,36.39898
1438565,219.0548,147.4032,47.6035,36.39082
1438578,218.9945,147.1506,47.59564,36.34389
1438597,218.8963,147.1026,47.58285,36.33496
1438617,218.8248,146.8284,47.57352,36.28395
1438633,218.837,146.7233,47.57511,36.26438
1438647,218.8971,146.6609,47.58295,36.25277
1438664,218.9421,146.4695,47.58881,36.21709
1438681,218.9904,146.5402,47.59511,36.23027
1438697,219.0494,146.3269,47.60279,36.19049
1438715,219.1132,146.2088,47.61111,36.16845
1438733,219.1678,146.1504,47.61821,36.15754
1438749,219.2148,146.2298,47.62433,36.17237
1438765,219.2921,146.2669,47.63438,36.1793
1438781,219.3477,146.3689,47.64162,36.19833
1438799,219.3545,146.5045,47.6425,36.22363
1438815,219.4312,146.6847,47.65247,36.25719
1438833,219.4492,146.7487,47.65481,36.26913
1438846,219.5205,147.0456,47.66409,36.32437
1438864,219.5795,147.1455,47.67175,36.34294
1438881,219.6448,147.339,47.68023,36.37889
1438897,219.7193,147.6371,47.6899,36.43421
1438918,219.7749,147.7588,47.69711,36.45676
1438932,219.8183,148.0101,47.70274,36.50331
1438950,219.8343,148.2266,47.70483,36.54337
1438966,219.9041,148.4639,47.71387,36.58721
1438981,219.9089,148.7486,47.7145,36.63977
1438997,219.9137,149.1269,47.71512,36.70948
1439014,219.8306,149.6021,47.70435,36.79688
1439032,219.7559,150.1913,47.69465,36.90496
1439047,219.7201,150.5112,47.69,36.96351
1439064,219.7421,150.9702,47.69286,37.04736
1439081,219.7739,151.2878,47.69699,37.10529
1439097,219.7818,151.8064,47.69801,37.19967
1439115,219.721,152.0491,47.69012,37.24376
1439131,219.6484,152.5202,47.6807,37.32919
1439147,219.6284,152.8697,47.6781,37.39244
1439164,219.6264,153.4209,47.67783,37.49198
1439179,219.6465,153.8234,47.68045,37.5645
1439197,219.766,154.4466,47.69596,37.6765
1439215,219.8694,154.8129,47.70938,37.74218
1439231,220.0614,155.5228,47.73427,37.86913
1439248,220.2872,156.1114,47.76352,37.97407
1439263,220.4487,156.7805,47.78441,38.09298
1439280,220.6369,157.2348,47.80873,38.1735
1439297,220.755,157.7039,47.824,38.25647
1439315,220.9221,158.1956,47.84557,38.34322
1439331,221.0436,158.7302,47.86124,38.43731
1439348,221.1878,159.3209,47.87983,38.54099
1439365,221.3579,159.9543,47.90174,38.65182
1439381,221.5765,160.4533,47.92987,38.73891
1439398,221.7617,161.0278,47.95369,38.8389
1439414,222.0352,161.8578,47.98879,38.98286
1439431,222.261,162.5196,48.01775,39.09724
1439448,222.4761,163.2272,48.04532,39.21912
1439464,222.7068,163.8662,48.07484,39.32883
1439481,222.9058,164.4872,48.10027,39.4351
1439498,223.138,165.2523,48.12992,39.56561
1439514,223.3627,166.0928,48.15859,39.7084
1439531,223.5835,166.7427,48.18672,39.81843
1439548,223.7549,167.4633,48.20853,39.93999
1439565,223.913,168.1431,48.22864,40.05429
1439583,224.1129,168.9572,48.25404,40.19066
1439599,224.2816,169.6638,48.27546,40.30858
1439616,224.4253,170.4545,48.29369,40.44005
1439633,224.4748,171.1311,48.29996,40.55213
1439648,224.5683,171.67,48.31181,40.64113
1439663,224.6771,172.1995,48.3256,40.72836
1439681,224.7359,172.9611,48.33304,40.85344
1439697,224.8352,173.6756,48.34561,40.97033
1439713,224.9904,174.2644,48.36525,41.06635
1439731,225.149,174.799,48.38529,41.15329
1439747,225.3247,174.9678,48.40748,41.18069
1439764,225.4783,175.6444,48.42686,41.29031
1439781,225.7031,176.4197,48.45521,41.41547
1439797,225.9365,177.0793,48.4846,41.52156
1439819,226.3093,177.9184,48.53148,41.65604
1439833,226.5882,178.5134,48.56649,41.75105
1439848,226.9103,179.2403,48.60687,41.86674
1439865,227.2641,179.9897,48.65114,41.98558
1439881,227.5303,180.6463,48.68441,42.08934
1439898,227.9026,181.1243,48.73085,42.16466
1439916,228.2302,181.5604,48.77164,42.23323
1439931,228.5589,181.7569,48.81252,42.26408
1439949,228.8498,182.0523,48.84863,42.31038
1439965,229.1202,182.3717,48.88215,42.36038
1439981,229.3817,182.7541,48.91454,42.42015
1439998,229.663,183.1361,48.94931,42.47974
1440014,229.8865,183.3468,48.97691,42.51254
1440033,230.1485,183.6718,49.00923,42.56309
1440050,230.4745,183.9201,49.04938,42.60166
1440065,230.7801,184.2163,49.08695,42.64759
1440081,231.0782,184.2807,49.12355,42.65759
1440099,231.3039,184.3075,49.15123,42.66173
1440116,231.5164,184.5434,49.17726,42.69826
1440133,231.6612,184.7077,49.19498,42.72366
