Time Stamp(ms),Intersection,,Angle,
,x,y,x,y
185864.4,314.7224,246.9595,57.56483,50.99774
185879.8,314.4688,247.0336,57.54391,51.00615
185896.3,314.119,247.2277,57.51503,51.02814
185916.9,313.8423,247.3431,57.49215,51.04122
185930,313.6661,247.2674,57.47758,51.03265
185945.4,313.4818,247.2118,57.4623,51.02635
185961.9,313.3451,247.0889,57.45097,51.01241
185980,313.2606,247.0206,57.44397,51.00467
185996.3,313.2791,246.8852,57.4455,50.9893
186012.8,313.3955,246.832,57.45515,50.98326
186030,313.4046,246.8206,57.4559,50.98198
186047.5,313.4717,246.8727,57.46147,50.98788
186064.8,313.4816,246.9171,57.46229,50.99293
186081.4,313.5578,246.8991,57.4686,50.99088
186095.4,313.6013,246.8521,57.47221,50.98555
186111.4,313.6163,246.7423,57.47345,50.97308
186130.2,313.5778,246.7118,57.47026,50.96962
186145.3,313.5064,246.8296,57.46434,50.98299
186162.1,313.4167,246.8511,57.45691,50.98544
186178.9,313.2517,246.8905,57.44322,50.98991
186196,313.0925,246.8525,57.43002,50.98559
186211.1,312.9098,246.8945,57.41484,50.99036
186230.3,312.6594,246.8869,57.39402,50.9895
186246.3,312.4727,246.8282,57.37849,50.98283
186262.4,312.2659,246.8874,57.36126,50.98956
186278.7,311.9219,246.9013,57.33257,50.99113
186295.2,311.6994,246.9499,57.31399,50.99664
186313.1,311.5577,247.0063,57.30215,51.00305
186328.9,311.379,246.988,57.2872,51.00097
186345.2,311.1086,246.9401,57.26456,50.99554
186361.4,310.958,246.6981,57.25195,50.96806
186380.8,310.7577,246.3915,57.23514,50.9332
186397.1,310.4807,246.1118,57.21189,50.90134
186412.8,309.9817,245.6178,57.16992,50.84499
186430.8,309.6125,245.2958,57.1388,50.80819
186444.9,309.1188,244.9724,57.09711,50.77116
186463.3,308.7426,244.7216,57.06528,50.74242
186481.6,308.3724,244.4888,57.03391,50.71569
186496.4,307.9055,244.4273,56.99426,50.70862
186513.4,307.3642,244.2917,56.94819,50.69304
186532,306.6558,244.145,56.88773,50.67617
186549.2,305.8723,243.7831,56.82062,50.63449
186564.3,304.8299,243.3326,56.73097,50.58252
186581.1,303.5791,242.5785,56.62283,50.49525
186598.9,302.1216,241.8219,56.49603,50.40739
186619,300.8343,241.415,56.38333,50.35999
186630.8,299.2274,240.7505,56.24171,50.28238
186649.5,297.7578,239.8767,56.11126,50.17995
186663.3,295.841,238.3838,55.93979,50.00391
186679.6,294.0637,236.8276,55.77941,49.81904
186695.4,292.3139,234.8597,55.62022,49.58321
186712.8,290.7627,232.8718,55.47801,49.34264
186731,289.4033,231.3584,55.35253,49.15791
186748.8,287.8456,229.6983,55.20778,48.95367
186764.6,286.4151,228.2843,55.0739,48.77837
186780,284.8343,226.6798,54.9249,48.57798
186797,282.7405,225.0463,54.72585,48.37231
186817.7,281.2222,223.9598,54.58027,48.23458
186831.1,279.6391,222.9956,54.42736,48.11175
186847.8,277.8027,221.8483,54.24855,47.96481
186863.7,276.1102,220.7891,54.08236,47.8284
186880.5,274.4445,219.7625,53.9175,47.6955
186896.5,272.4068,218.9366,53.71403,47.58809
186916.8,270.3436,218.2015,53.50599,47.49213
186932.4,268.2615,217.6375,53.29395,47.41825
186946.3,265.7962,216.9706,53.04014,47.33063
186962.2,263.2262,216.0149,52.77233,47.20457
186980,260.5336,214.8989,52.48817,47.05659
186997.7,257.9286,213.71,52.20969,46.89804
187013.8,254.6398,212.2056,51.85309,46.69606
187030.1,250.2966,210.6207,51.37333,46.48162
187046.9,246.3201,209.4128,50.92507,46.31706
187063.3,241.4948,208.0557,50.36929,46.13097
187082.6,236.9752,206.7718,49.83663,45.95375
187099,232.2259,205.4979,49.26397,45.7768
187114.5,227.2346,204.1783,48.64746,45.59229
187133.2,222.7911,203.0643,48.08562,45.43559
187149.8,218.2634,202.5502,47.50022,45.36296
187164.2,213.5332,202.1512,46.87438,45.30649
187181.7,208.9864,202.1471,46.25873,45.3059
187200.3,204.7399,201.6279,45.67096,45.23223
187216.2,200.2566,200.7596,45.03674,45.1086
187233.6,195.7247,200.945,44.38102,45.13504
187247.4,191.3778,202.0387,43.73796,45.29053
187263.6,186.9634,203.3632,43.07047,45.47771
187281.2,181.3045,204.5192,42.19302,45.64007
187299.2,175.9232,204.9723,41.33538,45.70345
187316.3,170.9864,204.8747,40.52818,45.6898
187334,166.188,204.307,39.72455,45.61034
187350.3,162.1746,203.6492,39.03767,45.51797
187367,158.8642,202.8258,38.46086,45.40191
187382.8,155.4086,202.0172,37.84875,45.28749
187401,152.1866,200.54,37.26871,45.07724
187419.4,149.6541,199.1741,36.80643,44.88145
187434.6,147.3584,197.7153,36.38248,44.67086
187450,145.236,196.3258,35.9864,44.46884
187465.1,143.2516,194.82,35.61244,44.24833
187482.1,141.0631,193.507,35.19592,44.05469
187499.1,138.9371,192.4548,34.78715,43.89858
187516.4,137.077,191.6007,34.42616,43.77127
187534.3,135.5174,190.8351,34.12105,43.65669
187551,134.0184,190.2924,33.82572,43.5752
187581.4,131.7153,189.6677,33.36797,43.48112
187592.7,130.9733,189.4773,33.21946,43.45239
187602.5,130.2429,188.8776,33.07275,43.36171
187616.6,129.1272,187.726,32.84774,43.18683
187632.5,127.7992,186.5991,32.57841,43.01472
187650.5,126.9127,185.1493,32.39771,42.79187
187672.2,126.8258,184.0916,32.37997,42.62826
187688.2,127.0806,183.3292,32.432,42.5098
187701.1,127.7263,182.872,32.56359,42.43855
187717.3,128.8781,183.1703,32.79736,42.48505
187732.8,131.0598,184.4882,33.23679,42.68971
187751.3,133.4045,185.8274,33.70419,42.89631
187767.4,136.6531,187.7206,34.34346,43.186
187786.1,139.1421,189.1034,34.82674,43.39588
187801.2,141.6628,190.6073,35.31047,43.62251
187817.2,144.8161,193.121,35.90755,43.99751
187836.9,146.8422,195.0386,36.28652,44.28045
187849.5,148.8911,197.479,36.66605,44.6366
187865,150.4531,200.2542,36.95287,45.03638
187881.8,152.1482,203.1345,37.26174,45.44549
187899.8,153.973,206.5731,37.59141,45.92623
187916.7,155.6075,209.0591,37.88425,46.26868
187932.3,156.7758,211.6779,38.09215,46.62485
187950.2,158.0545,214.7828,38.31835,47.04115
187968.5,159.0236,217.2953,38.48884,47.37333
187982.2,160.1614,219.0103,38.688,47.59771
187999.5,160.563,219.5641,38.75802,47.66974
188016.2,160.6137,219.762,38.76685,47.69544
188033.3,160.3857,219.9871,38.72712,47.72464
188050.8,160.2642,220.6829,38.70593,47.81468
188067.5,159.9553,221.5895,38.652,47.93154
188084.2,159.5292,222.3204,38.57747,48.02538
188102.2,159.322,223.3851,38.54118,48.16145
188118.4,159.3128,224.3394,38.53957,48.28279
188132.9,159.2751,225.0467,38.53296,48.37236
188152,159.0608,225.809,38.49537,48.46855
188169,158.8271,226.4909,38.45433,48.55428
188186.3,158.7269,227.3292,38.43673,48.65928
188200.3,158.7057,228.2216,38.43299,48.77058
188217.7,158.7122,228.6084,38.43415,48.81867
188235.8,158.734,228.9273,38.43798,48.85824
188252.3,158.8693,229.1017,38.46174,48.87986
188269.3,159.0642,229.3139,38.49597,48.90614
188289.6,159.3941,229.5361,38.55381,48.93362
188300.6,159.8202,229.6084,38.62838,48.94256
188316,160.3465,230.0264,38.72028,48.99417
188333.5,161.0519,230.4949,38.84308,49.05188
188351.6,161.7568,230.8646,38.96538,49.09734
188370.7,162.5524,231.2697,39.10291,49.14704
188383.8,163.5178,231.6859,39.26905,49.198
188401.2,164.6371,231.9756,39.46072,49.23341
188418.4,165.8723,232.1963,39.67101,49.26036
188434.9,167.0348,232.5881,39.86776,49.30811
188450.4,168.2715,232.9646,40.07583,49.35392
188466.4,169.7036,233.3887,40.31521,49.40543
188484.1,170.9616,233.7137,40.52409,49.44481
188499.5,172.1742,234.0464,40.72421,49.48507
188516.2,173.4687,234.3573,40.93652,49.52263
188537.3,174.3468,234.7762,41.07977,49.57315
188549.6,175.3739,235.3647,41.24653,49.64394
188566.6,176.3053,235.6876,41.39703,49.6827
188582.8,177.0342,235.9282,41.51433,49.71154
188602.8,177.6469,236.3654,41.61258,49.76385
188617.8,178.1033,236.7342,41.68559,49.8079
188633.6,178.4854,237.4588,41.74658,49.8942
188651.3,178.8764,238.1606,41.80888,49.97748
188667.2,179.2712,238.9124,41.87165,50.06639
188684.1,179.7056,239.6513,41.94057,50.15345
188702.2,179.9558,240.3242,41.98021,50.23246
188719.2,180.1558,241.0639,42.01186,50.31901
188735,180.3405,242.1925,42.04106,50.45047
188752.6,180.6081,242.9043,42.08332,50.533
188769.6,180.8555,243.242,42.12232,50.57206
188786.2,181.0748,243.6099,42.15686,50.61452
188802,181.2775,243.9944,42.18877,50.65883
188818,181.4578,244.4865,42.21711,50.71542
188834.1,181.7087,245.1487,42.25652,50.79136
188855,182.0739,245.45,42.31377,50.82582
188870.1,182.3786,245.7517,42.36148,50.86028
188886.8,182.7333,246.1321,42.4169,50.90366
188908.8,183.0686,246.4876,42.46922,50.94413
188921,183.5438,246.9205,42.54319,50.99331
188939.4,183.994,247.2506,42.61312,51.03075
188953.5,184.7045,247.436,42.72318,51.05175
188971.8,185.4086,247.7674,42.83185,51.08923
188988.1,186.0696,248.0882,42.93352,51.12545
189004,186.8249,248.5142,43.04928,51.17348
189022,187.7557,249.036,43.19136,51.23217
189038.3,188.7574,249.5138,43.3435,51.28577
189056.3,189.8099,249.9037,43.50256,51.32943
189071.9,191.0312,250.4864,43.68608,51.3945
189087,192.3076,251.0197,43.87668,51.45391
189106.8,193.6644,251.5517,44.07796,51.51301
189122.8,195.0146,251.9698,44.27692,51.55935
189140.3,196.323,252.4266,44.46843,51.60988
189155.9,197.296,252.7549,44.61005,51.64612
189171.4,198.5876,253.2524,44.79698,51.70094
189192.1,199.8516,253.8432,44.97874,51.76585
189208,200.9479,254.224,45.13545,51.80759
189221,201.9798,254.6348,45.28219,51.85254
189237.9,202.9618,255.1036,45.42112,51.90373
189254.7,204.0501,255.7116,45.5743,51.96994
189273.3,204.8838,256.3654,45.69109,52.04091
189288.6,205.9313,257.5429,45.83712,52.16817
189305.7,207.2536,259.1356,46.02039,52.33916
189329.8,208.439,260.7129,46.18365,52.5072
189340.3,209.7332,262.503,46.36081,52.69636
189356.1,211.1677,264.1795,46.55583,52.87206
189374.1,212.8047,265.0356,46.77668,52.96123
189388.5,214.1871,265.3445,46.96178,52.99332
189404.5,215.5022,265.8362,47.13669,53.04428
189421.9,216.8803,266.2239,47.31876,53.08439
189438,218.1778,266.7878,47.48902,53.14259
189454.4,219.6413,267.7169,47.67977,53.23814
189476,221.0199,268.6283,47.85818,53.33146
189490.9,222.2211,269.6205,48.01264,53.43259
189505.7,223.8958,270.4504,48.22646,53.51681
189521.8,225.2876,270.8474,48.4028,53.55698
189538,226.5975,271.0746,48.56766,53.57993
189554.6,227.84,271.2494,48.72305,53.59758
189570.6,229.0963,271.4968,48.87919,53.62253
189591.2,230.2363,271.6489,49.02004,53.63785
189608.1,231.1693,271.6784,49.13473,53.64082
189621.6,232.15,271.7687,49.25471,53.64991
189639.1,233.1597,272.0227,49.37763,53.67546
189655.3,234.0954,272.1896,49.49099,53.69222
189673.8,234.9504,272.4196,49.59412,53.71531
189687.9,235.9247,272.6937,49.71112,53.7428
189704.4,236.8238,272.8098,49.81858,53.75443
189720.8,237.7462,272.7602,49.92834,53.74946
189738.8,238.5919,272.8586,50.02853,53.75932
189755.5,239.3497,272.9532,50.11796,53.76878
189771,240.1346,273.1063,50.21022,53.7841
189787,241.0891,273.1389,50.32196,53.78736
189805,241.9188,273.0379,50.41865,53.77726
189821.9,242.6803,272.8536,50.50706,53.75882
189838.7,243.3845,272.6791,50.58852,53.74134
189855.2,244.0513,272.6795,50.66538,53.74137
189871.7,244.8278,272.5665,50.75459,53.73005
189889.7,245.4493,272.3361,50.82574,53.70694
189907.2,246.0875,272.0112,50.89858,53.6743
189925,246.625,271.8293,50.95975,53.65601
189940.1,247.1096,271.6062,51.01477,53.63355
189955.3,247.5817,271.4131,51.06824,53.61409
189972.9,248.1022,271.1614,51.12703,53.5887
189990.3,248.6464,270.908,51.18837,53.5631
190018.2,249.1504,270.699,51.24502,53.54197
190032,249.4777,270.5954,51.28173,53.53149
190041.7,249.8373,270.5341,51.32199,53.52528
190056.7,250.214,270.5301,51.3641,53.52488
190071.8,250.5909,270.4832,51.40616,53.52013
190092.4,250.9777,270.4766,51.44924,53.51946
190108.1,251.3089,270.3997,51.48606,53.51167
190123.5,251.6177,270.3705,51.52034,53.50872
190139.5,251.9617,270.3422,51.55845,53.50584
190155.7,252.2976,270.1942,51.59562,53.49084
190173.5,252.6222,270.1266,51.63147,53.48399
190191,252.934,269.9182,51.66586,53.46284
190205.1,253.2133,269.8206,51.69663,53.45293
190227.1,253.4866,269.7242,51.72669,53.44313
190242.1,253.7233,269.6805,51.75269,53.43869
190257.4,253.9214,269.6109,51.77443,53.43162
190272.5,254.167,269.3918,51.80135,53.40932
190289.7,254.3061,269.2191,51.81659,53.39173
190305.5,254.4318,268.9985,51.83034,53.36926
190325.8,254.5107,268.8943,51.83897,53.35862
190338.8,254.5829,268.7358,51.84687,53.34244
190356.9,254.6887,268.6564,51.85843,53.33434
190374.3,254.796,268.4731,51.87016,53.3156
190389.8,254.8983,268.2461,51.88132,53.29238
190407.1,255.0291,268.066,51.8956,53.27394
190421.1,254.8639,268.6109,51.87756,53.32969
190438.6,255.0192,268.6649,51.89452,53.3352
190454.9,255.2255,268.816,51.91702,53.35063
190473,255.4653,268.926,51.94313,53.36185
190489.3,255.796,268.9943,51.97911,53.36882
190504.8,256.1516,269.0573,52.01772,53.37525
190521.4,256.5859,269.091,52.0648,53.37868
190537.2,257.0929,269.1814,52.11963,53.38789
190554.9,257.6987,269.2348,52.18496,53.39334
190573.9,258.2155,269.3485,52.24055,53.40491
190590.1,258.7621,269.3855,52.29918,53.40868
190607.3,259.345,269.5262,52.36154,53.423
190623.7,259.8794,269.6681,52.41856,53.43743
190641,260.443,269.7708,52.47853,53.44787
190656.3,261.0703,269.869,52.5451,53.45785
190673.8,261.798,269.9547,52.62206,53.46654
190691.2,262.538,269.9073,52.70005,53.46173
190708.6,263.2774,269.8178,52.7777,53.45265
190724.8,263.9312,269.7014,52.84612,53.44082
190742.9,264.7261,269.7157,52.92903,53.44227
190760.9,265.4532,269.7526,53.00459,53.44602
190774.7,266.7216,269.7141,53.13577,53.4421
190807,267.635,269.7219,53.22974,53.44289
190823,268.5226,270.0028,53.32066,53.47143
190842.1,269.5359,270.1069,53.42398,53.48199
190860.3,270.3615,270.3772,53.5078,53.5094
190878.8,271.1992,270.7436,53.59251,53.54649
190891.7,271.7994,270.9088,53.653,53.56318
190914.2,272.8447,271.4198,53.75792,53.61477
190934.8,273.8479,271.8242,53.85813,53.65549
190958.7,274.7712,272.2668,53.94994,53.69998
190979.9,275.7603,272.7052,54.04784,53.74395
190992.3,276.2268,273.0018,54.09385,53.77364
191003.6,276.7845,273.4496,54.14874,53.8184
191014.5,277.3659,273.8175,54.20579,53.8551
191028.6,278.3933,274.4688,54.30622,53.91991
191042.3,279.6249,275.1855,54.42598,53.991
191059,281.0187,276.0911,54.56068,54.08048
191075.5,282.3911,277.0455,54.69244,54.17436
191092.8,283.7744,277.8647,54.82438,54.25462
191108.7,285.3529,278.5358,54.9739,54.32012
191129.1,286.5669,278.9629,55.08815,54.3617
191140.9,287.8812,279.2893,55.21109,54.39342
191158.1,289.1052,279.5238,55.32491,54.41618
191174.4,290.3752,279.693,55.44233,54.43258
191191.3,291.6804,279.8894,55.56227,54.45161
191214.3,292.8014,280.0524,55.6647,54.4674
191229.7,293.9227,280.171,55.76663,54.47886
191243.5,295.3584,280.2275,55.89637,54.48433
191261,296.5257,280.3391,56.00121,54.49512
191273.5,297.8139,280.3545,56.11626,54.4966
191289.7,299.2253,280.3642,56.24152,54.49754
191307.5,300.5571,280.3436,56.35897,54.49555
191324.1,301.8571,280.4772,56.47293,54.50845
191340.2,303.1508,280.653,56.58566,54.52542
191357.3,304.3685,280.7534,56.69115,54.53511
191375.4,305.4806,280.876,56.78699,54.54693
191391,306.7035,280.9279,56.89181,54.55193
191406.9,307.9496,281.004,56.99801,54.55926
191423.1,309.0742,280.923,57.09334,54.55146
191439.8,310.1061,280.9115,57.18039,54.55035
191457.7,311.2015,280.8587,57.27235,54.54526
191476.7,312.2533,280.6844,57.36021,54.52845
191494.1,313.0698,280.421,57.42813,54.50303
191507.9,314.0078,280.3113,57.50584,54.49243
191524.1,314.8012,280.1707,57.57133,54.47883
191539.7,315.5269,279.9682,57.63101,54.45924
191558.6,316.3254,279.7934,57.69645,54.44232
191574.9,317.1891,279.5676,57.76698,54.42043
191593,318.0111,279.4434,57.83385,54.40838
191611.8,318.7442,279.4219,57.89327,54.40629
191639.8,319.6512,279.3044,57.96652,54.39489
191654,320.0587,279.3003,57.99934,54.39449
191667.6,320.4143,279.2837,58.02793,54.39288
191680.8,320.8776,279.3078,58.0651,54.39522
191701.1,321.2796,279.3491,58.09729,54.39922
191714.6,321.5521,279.3717,58.11908,54.40142
191729.8,321.9166,279.479,58.14819,54.41183
191745.5,322.1954,279.5454,58.17042,54.41828
191761.7,322.6719,279.5062,58.20834,54.41447
191779.3,323.1449,279.4618,58.24592,54.41017
191796,323.5505,279.4137,58.27807,54.4055
191811.8,323.9155,279.4286,58.30695,54.40694
191829.2,324.3172,279.4012,58.33869,54.40429
191848.8,324.7094,279.4643,58.36961,54.4104
191862.2,324.967,279.5009,58.3899,54.41396
191877,325.2348,279.6025,58.41096,54.42381
191891.9,325.4882,279.7339,58.43087,54.43655
191908.8,325.7161,279.8128,58.44875,54.4442
191924.7,325.9951,279.7777,58.47063,54.4408
191945.2,326.2815,279.7806,58.49305,54.44107
191960.1,326.5042,279.8839,58.51046,54.45108
191977.1,326.7518,279.9522,58.52981,54.4577
191994.2,327.0588,280.0253,58.55376,54.46478
192017,327.4092,279.9904,58.58107,54.46139
192029.1,327.7388,279.9669,58.6067,54.45912
192047.4,328.0411,279.8927,58.63018,54.45193
192071.4,328.009,279.7708,58.62769,54.44013
192086.2,328.1372,279.7028,58.63765,54.43354
192101.2,328.3546,279.6372,58.65451,54.42718
192114.7,328.5417,279.6055,58.669,54.4241
192131.1,328.9349,279.5032,58.69943,54.41418
192143.6,329.358,279.4598,58.73212,54.40998
192159.6,329.8244,279.3931,58.76808,54.4035
192176.8,330.3339,279.3743,58.80727,54.40167
192193.4,331.0373,279.1711,58.86124,54.38194
192212.2,331.8162,278.9938,58.92081,54.36471
192234.8,332.6904,278.921,58.98742,54.35763
192246.2,333.4109,278.9191,59.04213,54.35744
192261.4,334.2712,278.8499,59.10722,54.3507
192278.7,334.9935,278.679,59.16168,54.33408
192294,335.8898,278.4588,59.22902,54.31262
192313.1,336.8803,278.2555,59.30313,54.29279
192331.7,337.5422,278.1689,59.35247,54.28433
192345.2,338.1741,278.1059,59.39944,54.27818
192360.3,338.8466,277.9782,59.4493,54.26571
192379,339.2196,277.7106,59.47688,54.23954
192395.9,339.4397,277.3146,59.49314,54.20076
192412.6,339.6986,276.8048,59.51225,54.15073
192431.7,340.1427,276.0435,59.54496,54.07579
192448.1,340.8085,274.8954,59.59389,53.96225
192464.7,341.389,274.1921,59.63644,53.89241
192482.1,342.1394,273.3357,59.69128,53.80703
192502,342.9937,272.7548,59.75349,53.74892
192515.3,343.6721,272.3809,59.80273,53.71143
192530.5,344.3474,272.066,59.8516,53.67981
192546.9,345.0175,271.7651,59.89996,53.64954
192562.5,345.7373,271.48,59.95174,53.62083
192579.3,346.4478,271.1358,60.0027,53.58612
192597.5,347.3609,270.7549,60.06796,53.54762
192611.8,348.4494,270.3036,60.14541,53.50194
192627.3,349.6543,269.8072,60.23072,53.45157
192645.6,351.0448,269.182,60.32863,53.38796
192663.1,352.3536,268.4614,60.42025,53.3144
192681.9,353.9633,267.6581,60.53223,53.23211
192697.8,355.1854,266.9169,60.61674,53.1559
192712.5,356.7292,265.6966,60.72286,53.02982
192730.7,358.2909,264.4153,60.8295,52.89666
192746.4,359.6631,263.3798,60.92262,52.78843
192764.2,360.5121,262.2137,60.97996,52.6659
192778.5,361.1154,260.2149,61.02058,52.45428
192796.1,362.0071,258.0382,61.08043,52.22149
192811.8,362.9086,255.9653,61.14071,51.99749
192829.5,363.4246,254.2659,61.17511,51.81219
192845.9,363.9005,252.9067,61.20677,51.66286
192864.8,364.3062,252.0717,61.23371,51.57064
192877.6,364.5596,251.6079,61.25051,51.51925
192893.1,364.6415,251.4759,61.25594,51.5046
192911.3,364.733,251.3887,61.262,51.49492
192929.5,364.8457,251.2484,61.26947,51.47933
192947,365.0484,251.0963,61.28288,51.46243
192962.4,365.3735,251.0096,61.30436,51.45278
192979.9,365.6479,251.0767,61.32247,51.46025
193004.3,365.6559,250.9914,61.323,51.45076
193016.3,365.5316,250.6374,61.3148,51.41134
193028.3,365.496,250.0282,61.31245,51.34334
193044.5,365.446,249.3422,61.30915,51.26654
193061,365.387,248.6449,61.30525,51.1882
193077.5,365.3935,247.7786,61.30568,51.0905
193094.9,365.7172,246.4666,61.32705,50.94174
193114.8,366.3408,245.1689,61.36812,50.79367
193130.1,366.97,244.1428,61.40945,50.67592
193146,367.741,243.0023,61.45995,50.54434
193164.4,368.7881,241.7166,61.52827,50.39513
193180.1,369.8413,240.588,61.5967,50.26336
193194.5,371.0036,239.421,61.67186,50.12635
193216.8,372.2726,238.1288,61.7535,49.97371
193229.5,373.7171,236.7765,61.84591,49.81294
193244.5,375.683,235.4776,61.97078,49.6575
193266.3,377.4975,234.5067,62.08514,49.54066
193282.1,379.3152,233.5585,62.19884,49.42601
193297.2,381.0106,232.6503,62.30413,49.31569
193314,383.1954,231.3886,62.43873,49.16161
193328.6,385.3485,230.3591,62.57021,49.03518
193346,387.5954,229.3521,62.70618,48.91087
193363,389.6077,228.3675,62.8269,48.78873
193379.6,391.7274,226.9913,62.953,48.61702
