Time Stamp(ms),Intersection,,Angle,
,x,y,x,y
1125861,325.6571,231.1825,58.44413,49.13635
1125896,325.7284,229.4922,58.44972,48.92819
1125923,325.6614,227.5555,58.44447,48.68755
1125956,325.6338,226.0373,58.4423,48.49729
1125987,325.7563,225.1001,58.45192,48.37911
1126021,326.1234,224.8855,58.48068,48.35198
1126053,326.5107,224.9434,58.51097,48.35931
1126084,326.831,224.2729,58.53599,48.27435
1126118,326.8793,224.0301,58.53976,48.24353
1126152,326.7769,223.5486,58.53177,48.18227
1126182,326.7847,222.5882,58.53238,48.05966
1126216,326.9576,221.6567,58.54586,47.94018
1126249,327.6252,219.966,58.59787,47.7219
1126287,328.3543,218.5442,58.65448,47.53691
1126317,329.1744,217.1681,58.71794,47.35661
1126357,330.0273,215.5661,58.7837,47.14516
1126382,330.9761,213.9554,58.85656,46.93084
1126413,332.2349,211.953,58.95274,46.66199
1126449,333.6511,210.153,59.06032,46.41802
1126479,335.0897,208.3665,59.16891,46.17369
1126510,336.8025,206.2121,59.29732,45.87614
1126544,338.6552,203.8759,59.43513,45.54984
1126578,340.6097,201.5733,59.5793,45.22447
1126612,342.4492,199.0641,59.71386,44.86562
1126639,344.282,196.808,59.84688,44.53911
1126675,346.2195,194.2111,59.98634,44.15868
1126705,348.2127,191.7853,60.1286,43.79884
1126736,350.3169,189.7218,60.27745,43.48928
1126770,352.8109,187.2364,60.45214,43.11217
1126803,355.2723,185.1715,60.62273,42.79529
1126838,358.0404,183.1341,60.81244,42.47942
1126869,361.2218,180.9436,61.02773,42.13622
1126910,364.2153,179.0068,61.22768,41.82963
1126935,367.4815,177.0603,61.44297,41.51851
1126969,371.1064,174.7854,61.67849,41.1511
1127009,374.9878,172.1367,61.92674,40.71804
1127040,377.4723,169.7617,62.08356,40.32488
1127064,380.6721,166.7222,62.28317,39.81496
1127097,384.0132,163.2539,62.4888,39.22371
1127133,387.3489,159.851,62.69132,38.63378
1127162,390.7808,156.5366,62.89682,38.04968
1127195,394.0708,152.8278,63.09116,37.38486
1127229,397.3667,149.5784,63.28327,36.79251
1127261,400.5698,146.3334,63.46756,36.1917
1127296,403.6092,142.9969,63.64025,35.56418
1127328,406.6032,140.0714,63.80835,35.00575
1127361,409.3039,137.1994,63.95827,34.45001
1127391,412.0832,134.1158,64.11089,33.84499
1127426,414.6956,130.9368,64.25285,33.21213
1127458,417.173,127.7777,64.38613,32.57404
1127491,419.785,124.5503,64.52527,31.91266
1127521,422.2246,121.7764,64.65395,31.33649
1127552,424.8044,118.9668,64.78871,30.74562
1127583,426.9552,116.5704,64.90005,30.23585
1127616,428.7054,114.3787,64.98997,29.76497
1127649,429.6275,112.6495,65.0371,29.39027
1127682,429.9296,110.9531,65.05251,29.01999
1127715,429.8204,109.1611,65.04694,28.62596
1127745,429.0471,107.5762,65.00745,28.27496
1127779,428.2481,106.1001,64.96653,27.94596
1127811,427.2711,104.3398,64.91632,27.55101
1127850,426.2699,102.4992,64.86468,27.13496
1127876,425.4522,100.513,64.82234,26.68249
1127908,424.6374,98.77913,64.78003,26.28456
1127940,423.7359,96.88792,64.73306,25.84739
1127972,422.6065,94.92679,64.67398,25.3906
1128005,421.2683,93.21034,64.60365,24.98795
1128037,419.6011,91.54935,64.51551,24.59578
1128068,417.9748,89.95682,64.42899,24.21746
1128100,416.3008,88.46323,64.33936,23.86058
1128135,414.1364,87.15764,64.22258,23.547
1128167,410.6134,85.14755,64.0304,23.06129
1128198,407.1225,83.27917,63.8373,22.60664
1128235,403.3202,81.71753,63.62392,22.22432
1128263,399.3972,80.56978,63.40037,21.94199
1128293,395.3996,79.44989,63.16892,21.66542
1128325,391.5187,78.03491,62.94064,21.31446
1128359,387.9619,76.56047,62.72824,20.94696
1128392,384.5509,75.44249,62.52164,20.6671
1128422,381.4733,74.63474,62.33274,20.46425
1128455,378.2356,74.20314,62.13141,20.35564
1128488,374.9309,74.22382,61.92313,20.36085
1128521,372.0382,74.18347,61.73845,20.35069
1128552,369.3922,74.61154,61.56756,20.45842
1128584,367.1286,75.18932,61.41986,20.60358
1128617,365.7981,75.65764,61.33238,20.72104
1128650,364.9394,76.46106,61.27566,20.92212
1128682,364.1472,77.24428,61.22316,21.11763
1128715,363.1787,78.31764,61.15873,21.38473
1128748,361.6273,79.56804,61.05497,21.69465
1128779,359.7825,80.94113,60.93069,22.03346
1128809,357.5123,82.60489,60.77642,22.44182
1128842,354.8007,84.6004,60.59018,22.92846
1128872,351.5196,87.15891,60.36193,23.54731
1128904,347.9902,90.56807,60.11278,24.36294
1128939,344.084,93.69228,59.83256,25.10128
1128972,340.2934,96.77228,59.55605,25.82055
1129002,336.4136,100.6571,59.26825,26.71544
1129037,332.8661,104.2057,59.00078,27.5208
1129069,329.8995,107.1758,58.77386,28.18593
1129099,325.6822,109.7743,58.4461,28.76112
1129132,320.4816,112.8595,58.03333,29.43593
1129165,314.0491,115.6017,57.50926,30.02829
1129196,307.8269,117.8769,56.98758,30.51444
1129229,301.9754,120.4706,56.48327,31.06277
1129262,296.7325,122.3437,56.01972,31.4549
1129293,291.5399,123.8832,55.54939,31.77474
1129320,286.3502,125.6597,55.0678,32.14108
1129355,281.0362,127.2004,54.56236,32.45644
1129390,275.6973,128.5639,54.04161,32.7337
1129421,270.7669,129.7875,53.54884,32.98104
1129456,265.4478,131.1208,53.00403,33.24901
1129487,259.5878,133.2393,52.38746,33.67142
1129517,253.5574,135.1611,51.73447,34.05104
1129551,247.3721,135.8561,51.04451,34.1875
1129584,241.8063,136.6139,50.40557,34.33578
1129615,237.7933,138.3807,49.93393,34.6795
1129645,235.4704,140.7595,49.65664,35.13779
1129680,233.6461,142.649,49.43662,35.49818
1129711,231.8694,144.7432,49.22044,35.89386
1129745,229.9914,146.4386,48.98985,36.21132
1129778,228.0434,148.1106,48.7484,36.5219
1129807,225.481,149.8891,48.42721,36.84956
1129839,222.1061,151.5869,47.99789,37.15974
1129873,218.4513,153.3192,47.52478,37.47363
1129906,214.7058,154.7286,47.03091,37.72708
1129941,212.1766,156.5048,46.69215,38.04403
1129971,210.2343,158.8257,46.42908,38.45409
1130002,209.438,161.5138,46.32049,38.92327
1130035,209.2609,164.6713,46.29629,39.46656
1130069,209.938,168.7282,46.38873,40.15235
1130102,210.9205,173.0355,46.52232,40.86562
1130138,211.8382,176.9132,46.6465,41.49489
1130166,212.3911,180.8921,46.72104,42.12809
1130196,212.5725,184.0084,46.74545,42.61536
1130232,212.6606,186.5188,46.75731,43.00241
1130266,212.7656,189.6711,46.77143,43.48163
1130297,213.0847,192.9579,46.81427,43.97334
1130327,213.7753,196.2824,46.90676,44.46251
1130359,214.4573,199.311,46.99781,44.90113
1130390,215.2809,202.7196,47.10734,45.38692
1130423,216.0215,205.6672,47.20545,45.80037
1130456,216.5841,207.7481,47.27972,46.08862
1130489,217.0101,209.769,47.33584,46.36568
1130524,217.3526,211.8067,47.38086,46.64224
1130555,217.6572,213.8658,47.42085,46.91887
1130586,218.0305,216.2061,47.46976,47.22983
1130618,218.3022,218.0647,47.5053,47.47422
1130652,218.5486,219.833,47.53748,47.70465
1130682,218.8984,221.9309,47.58312,47.97542
1130715,218.9697,223.584,47.59241,48.18678
1130748,219.0617,225.3307,47.6044,48.40825
1130778,219.1573,226.9308,47.61684,48.60944
1130812,219.3449,228.3675,47.64125,48.78873
1130848,219.6107,229.6222,47.6758,48.94426
1130875,219.9438,230.5891,47.71902,49.06347
1130908,220.2367,231.4531,47.75697,49.16951
1130943,220.566,232.2632,47.79957,49.26852
1130975,220.879,232.625,47.84001,49.31261
1131009,221.1959,232.9931,47.88087,49.3574
1131043,221.2557,233.6535,47.88858,49.43753
1131078,221.2377,234.1727,47.88626,49.50034
1131110,221.0903,234.6772,47.86727,49.56123
1131142,220.899,234.9971,47.84259,49.59974
1131177,220.8035,235.1331,47.83026,49.61611
1131207,220.7123,235.3791,47.81848,49.64567
1131238,220.6972,235.7157,47.81654,49.68607
1131269,220.7766,235.8673,47.82679,49.70424
1131303,220.7573,236.1668,47.82429,49.7401
1131338,220.7767,236.1658,47.82681,49.73999
1131370,220.8293,236.4583,47.8336,49.77496
1131400,220.8513,237.1701,47.83643,49.85985
1131436,220.9326,237.8994,47.84693,49.94652
1131464,221.01,238.6072,47.85691,50.03033
1131499,221.1035,239.4752,47.86897,50.13273
1131528,221.3199,240.8602,47.89684,50.29521
1131562,221.6888,241.7521,47.94431,50.39926
1131596,222.0313,242.4487,47.9883,50.48021
1131631,222.3296,242.8539,48.02655,50.52717
1131662,222.6435,242.8567,48.06674,50.52748
1131695,223.1046,243.6332,48.12567,50.61721
1131727,223.8548,243.9056,48.22124,50.64861
1131760,224.7506,243.981,48.33491,50.65729
1131790,225.9479,244.5483,48.48604,50.72252
1131824,227.2979,244.8735,48.65537,50.75983
1131856,228.4242,245.3785,48.79577,50.81765
1131888,229.6253,246.1902,48.94465,50.91028
1131921,230.7865,246.1981,49.08773,50.91118
1131955,231.593,246.334,49.18663,50.92665
1131988,232.3684,246.9557,49.28135,50.99731
1132021,233.0066,247.4566,49.35903,51.05408
1132060,233.5444,248.5124,49.4243,51.17327
1132082,234.207,250.542,49.50448,51.40071
1132116,234.7738,253.3357,49.57286,51.7101
1132150,235.6044,258.1314,49.67272,52.2315
1132181,236.5002,265.4232,49.77996,53.00148
1132214,237.7978,273.8535,49.93447,53.85868
1132247,238.7072,279.4859,50.04215,54.4125
1132281,238.3254,283.8269,49.997,54.82938
1132314,237.3519,288.9221,49.88148,55.30793
1132344,236.1865,294.7759,49.74246,55.84384
1132378,235.7064,299.9855,49.68496,56.30866
1132409,235.6956,305.0202,49.68366,56.74737
1132442,236.3206,310.299,49.7585,57.19662
1132477,237.6393,315.2835,49.91565,57.61101
1132510,239.5954,319.4319,50.14688,57.94884
1132542,241.675,319.4899,50.39028,57.95352
1132575,244.0475,319.7972,50.66494,57.97829
1132607,246.9373,321.0626,50.99522,58.07993
1132639,250.3795,322.5276,51.38258,58.19687
1132671,254.3865,324.5521,51.82539,58.35722
1132701,259.0119,325.6714,52.32593,58.44525
1132737,263.8461,326.6016,52.83723,58.51807
1132766,268.6059,327.084,53.32917,58.55573
1132801,272.3144,327.287,53.70476,58.57155
1132833,276.4291,327.9052,54.11378,58.61963
1132864,280.9256,329.1557,54.55171,58.7165
1132897,285.3143,330.4189,54.97026,58.8138
1132931,289.8828,331.4692,55.39688,58.8943
1132962,294.0147,331.7015,55.77497,58.91205
1132996,297.9624,331.8081,56.12948,58.92019
1133030,301.7976,332.1943,56.46773,58.94965
1133061,305.3566,332.4356,56.77633,58.96803
1133092,309.2015,332.7106,57.10411,58.98896
1133125,313.0791,331.8315,57.4289,58.92197
1133157,316.4211,330.9222,57.70428,58.85243
1133189,319.4545,330.6713,57.95066,58.83318
1133222,322.2461,330.2708,58.17445,58.80242
1133255,325.2439,329.253,58.41168,58.72401
1133285,328.2709,327.605,58.64802,58.5963
1133320,331.4834,326.4326,58.89538,58.50487
1133351,334.1885,326.2282,59.10098,58.48888
1133384,335.8981,326.2912,59.22964,58.49381
1133415,336.8245,326.5285,59.29896,58.51237
1133450,337.2413,326.7301,59.33006,58.52811
1133483,337.5392,327.0839,59.35225,58.55572
1133514,337.8316,326.6393,59.374,58.52102
1133549,338.4199,326.2533,59.41769,58.49084
1133595,339.2569,326.3969,59.47964,58.50208
1133614,340.6602,326.6751,59.58301,58.52382
1133646,342.1683,326.248,59.69339,58.49043
1133680,343.9314,325.8756,59.82151,58.46127
1133712,346.0638,325.8967,59.97517,58.46292
1133747,348.3613,326.0306,60.13915,58.47341
1133779,350.9211,326.0525,60.31995,58.47512
1133809,353.7173,325.8987,60.51517,58.46307
1133841,356.4135,325.6914,60.70121,58.44682
1133875,359.2261,325.7074,60.89302,58.44808
1133904,362.0561,325.9504,61.08371,58.46713
1133939,364.8511,326.3662,61.26982,58.49968
1133969,367.555,326.5684,61.44778,58.51548
1134001,370.2917,326.723,61.62586,58.52756
1134035,373.0821,327.1371,61.80535,58.55986
1134071,375.8993,327.5382,61.98446,58.59111
1134103,378.5959,328.1003,62.15395,58.63478
1134136,381.565,328.8378,62.3384,58.69193
1134166,384.382,329.5698,62.51133,58.74846
1134197,387.2917,330.1507,62.68787,58.79319
1134231,390.6524,330.8998,62.88918,58.8507
1134261,394.1353,331.5272,63.09494,58.89874
1134295,398.0263,331.9549,63.32141,58.93139
1134327,401.9598,332.4676,63.5468,58.97047
1134360,405.1394,332.9294,63.72641,59.00558
1134393,408.2083,333.0783,63.89765,59.01689
1134423,411.1143,333.6703,64.05788,59.06178
1134455,413.9948,333.9442,64.21491,59.0825
1134488,417.2141,334.2414,64.38833,59.10497
1134521,420.0803,334.3844,64.54091,59.11576
1134553,422.7024,334.2694,64.67901,59.10709
1134584,425.5486,334.8311,64.82734,59.14944
1134617,428.0787,334.8263,64.95784,59.14909
1134651,430.3994,334.465,65.07642,59.12185
1134683,432.3517,334.7146,65.17538,59.14067
1134715,433.9781,335.0861,65.25726,59.16865
1134753,435.5279,335.5497,65.33481,59.2035
1134781,436.8813,336.0168,65.40215,59.23854
1134814,438.2388,336.6165,65.46936,59.28343
1134847,439.6627,337.0552,65.53949,59.31618
1134877,441.0265,337.3136,65.6063,59.33545
1134913,442.4465,337.5981,65.67551,59.35664
1134947,443.7957,337.8992,65.74092,59.37903
1134976,444.759,337.9581,65.78742,59.3834
1135008,445.5468,338.2094,65.82533,59.40207
1135051,446.0922,338.5847,65.8515,59.4299
1135073,446.4436,338.6047,65.86834,59.43139
1135105,446.6801,338.5779,65.87966,59.4294
1135141,446.7746,338.6083,65.88418,59.43165
1135174,446.7364,338.5132,65.88235,59.4246
1135202,446.7886,338.0877,65.88485,59.39303
1135234,446.7809,338.1179,65.88448,59.39527
1135266,446.8578,338.1258,65.88816,59.39586
1135301,446.7848,338.0298,65.88467,59.38873
1135331,446.5926,338.2361,65.87547,59.40405
1135371,446.4095,337.9724,65.86671,59.38447
1135401,446.3438,337.6112,65.86356,59.35761
1135430,446.3019,337.5036,65.86155,59.3496
1135461,446.2854,337.6248,65.86076,59.35862
1135494,446.2968,337.6561,65.86131,59.36095
1135523,446.4125,338.4619,65.86685,59.4208
1135559,446.4862,338.5228,65.87038,59.42531
1135591,446.5237,338.6846,65.87218,59.43731
1135621,446.5383,338.5853,65.87287,59.42995
1135657,446.401,338.516,65.8663,59.42481
1135689,446.261,338.5348,65.8596,59.4262
1135720,445.8484,337.7128,65.83981,59.36517
1135752,445.2423,336.464,65.81069,59.27202
1135788,444.2208,330.5737,65.76146,58.8257
1135818,442.5653,322.1509,65.68128,58.16687
1135848,441.5755,309.3983,65.6331,57.12073
1135883,440.3878,297.7234,65.57506,56.1082
