Time Stamp(ms),Intersection,,Angle,
,x,y,x,y
1363892,312.226,235.2581,57.35793,49.63114
1363909,312.4232,234.8974,57.37436,49.58774
1363925,312.7558,234.5115,57.40204,49.54124
1363943,312.9055,233.9809,57.41448,49.47715
1363958,312.9655,233.4954,57.41947,49.41837
1363974,312.9032,233.0297,57.41429,49.36184
1363992,312.9036,232.694,57.41433,49.32102
1364008,312.9142,232.6208,57.4152,49.31211
1364025,312.9388,232.4513,57.41724,49.29145
1364041,312.9718,232.1138,57.41999,49.25029
1364058,312.9387,231.8308,57.41724,49.21572
1364075,312.9031,231.4232,57.41428,49.16584
1364092,312.8132,230.9832,57.40681,49.1119
1364109,312.8035,230.7784,57.40601,49.08674
1364125,312.7735,230.8599,57.40351,49.09675
1364142,312.674,230.9932,57.39524,49.11312
1364159,312.6521,230.682,57.39341,49.0749
1364175,312.5513,229.8582,57.38503,48.97342
1364192,312.4601,228.5269,57.37744,48.80854
1364211,312.3397,227.8289,57.36741,48.72167
1364225,312.2164,226.8877,57.35714,48.60404
1364241,312.1427,225.9172,57.35099,48.48218
1364260,312.156,225.0571,57.3521,48.37368
1364278,312.2404,223.9804,57.35913,48.23721
1364293,312.3306,223.1309,57.36665,48.12902
1364311,312.5825,222.0495,57.38762,47.99063
1364326,312.8775,220.9335,57.41216,47.84703
1364342,313.2729,219.6512,57.44498,47.68106
1364361,313.9392,217.5849,57.50017,47.41135
1364379,314.5274,216.0078,57.54875,47.20364
1364392,315.2382,213.6754,57.60729,46.89342
1364409,316.0019,209.9974,57.66997,46.39682
1364426,316.62,206.6699,57.72055,45.93963
1364443,317.3921,202.4783,57.78352,45.35281
1364461,317.9938,198.9986,57.83245,44.8562
1364478,318.5326,195.5672,57.87614,44.35797
1364495,318.8343,192.3732,57.90056,43.88645
1364513,319.0936,189.4594,57.92153,43.44968
1364530,319.2722,186.0696,57.93595,42.93351
1364547,319.4408,182.7621,57.94956,42.4214
1364563,319.4869,180.0303,57.95328,41.99202
1364580,319.4972,177.2483,57.95411,41.5487
1364597,319.4392,174.3803,57.94943,41.08522
1364615,319.3257,172.3138,57.94028,40.74717
1364630,319.2001,170.1595,57.93013,40.39105
1364646,319.0211,168.3996,57.91567,40.09731
1364661,318.7707,167.1107,57.89542,39.88057
1364679,318.6505,165.6851,57.88568,39.63921
1364696,318.5465,164.1206,57.87727,39.37241
1364713,318.5302,162.1941,57.87595,39.04103
1364731,318.5927,159.9787,57.88101,38.65609
1364750,318.5802,158.0742,57.87999,38.32182
1364762,318.6352,155.7547,57.88445,37.91051
1364779,318.7513,153.6348,57.89385,37.53053
1364795,319.0383,151.3204,57.91706,37.11121
1364812,319.3456,149.0396,57.94188,36.6934
1364831,319.7242,146.8564,57.97241,36.28917
1364847,320.1706,144.8651,58.00834,35.91678
1364864,320.873,143.1371,58.06473,35.59075
1364881,321.4891,141.962,58.11405,35.36751
1364898,322.2101,140.8247,58.17159,35.15027
1364914,323.0991,139.9994,58.24228,34.9919
1364932,324.0106,139.0674,58.31447,34.81231
1364945,324.9525,138.2475,58.38876,34.65369
1364962,326.1071,137.4053,58.4794,34.4901
1364979,327.3711,136.9299,58.57809,34.39748
1364996,328.5654,136.5011,58.67084,34.31374
1365014,329.9676,136.3602,58.7791,34.2862
1365030,331.3233,136.1575,58.88314,34.24656
1365045,332.7399,135.7678,58.99118,34.1702
1365062,334.3248,135.4724,59.11127,34.11222
1365079,335.8629,135.4968,59.227,34.117
1365097,337.584,135.4527,59.35558,34.10836
1365111,339.4287,136.0958,59.49233,34.23447
1365130,341.5262,136.784,59.64648,34.369
1365147,343.5699,137.6496,59.79532,34.53762
1365161,345.8473,139.1137,59.95964,34.82125
1365180,347.7057,140.9042,60.09253,35.16549
1365193,349.9742,143.2079,60.2533,35.60417
1365212,351.8022,145.363,60.38171,36.01021
1365230,353.6703,148.1178,60.51191,36.52325
1365244,355.5088,150.3046,60.63903,36.92571
1365261,356.9844,152.1287,60.74033,37.2582
1365278,358.3716,154.1427,60.83499,37.62193
1365295,359.5384,155.5872,60.91418,37.88063
1365311,360.5013,157.0203,60.97923,38.13551
1365329,361.1819,157.8637,61.02505,38.28468
1365345,361.8349,158.5663,61.06889,38.40848
1365361,362.3937,159.2882,61.10631,38.53526
1365382,362.743,159.905,61.12966,38.64322
1365396,363.0097,160.7247,61.14746,38.78617
1365411,363.2319,161.4414,61.16227,38.91071
1365430,363.4182,162.3034,61.17468,39.05992
1365445,363.8153,163.0495,61.20111,39.18855
1365462,364.3036,164.0765,61.23354,39.36486
1365478,364.8152,165.278,61.26744,39.56998
1365494,365.4995,166.506,61.31268,39.77839
1365510,366.2314,167.736,61.36092,39.98588
1365528,366.9615,169.1547,61.4089,40.22366
1365544,367.9394,170.7823,61.47292,40.4944
1365561,368.9496,172.3747,61.53879,40.75718
1365578,370.0319,174.212,61.60905,41.05782
1365595,371.2675,175.9827,61.68887,41.34497
1365612,372.4914,177.3194,61.76753,41.5601
1365627,373.9743,178.7325,61.8623,41.78596
1365645,375.3294,179.9341,61.94839,41.97677
1365661,376.6782,181.2401,62.03361,42.18288
1365684,378.1369,182.2582,62.12524,42.34263
1365700,379.3431,183.3023,62.20058,42.50562
1365712,380.8582,184.5236,62.2947,42.69519
1365729,382.3117,185.7059,62.38443,42.87761
1365749,383.6133,186.7113,62.46434,43.03189
1365761,385.0974,187.8967,62.55493,43.21281
1365779,386.6858,189.3115,62.65128,43.42735
1365796,388.3831,191.0839,62.75355,43.69398
1365813,390.1529,192.45,62.85944,43.89787
1365830,391.7878,193.5859,62.95658,44.06636
1365845,393.4455,194.499,63.05442,44.2011
1365862,394.7925,195.4324,63.13345,44.33821
1365879,395.9482,196.6523,63.2009,44.51645
1365895,396.9869,197.7617,63.26127,44.67758
1365913,397.7596,198.6909,63.306,44.81186
1365929,398.4234,199.5379,63.34433,44.93373
1365947,398.9605,200.3721,63.37526,45.05325
1365962,399.3268,201.1381,63.39633,45.16256
1365978,399.5865,202.0186,63.41124,45.28768
1365995,399.9987,202.9014,63.43488,45.41259
1366013,400.4351,203.3204,63.45985,45.47169
1366029,400.9102,203.8378,63.48701,45.54448
1366046,401.4767,204.2806,63.51931,45.60663
1366063,402.1132,204.7632,63.55552,45.67422
1366080,402.8892,205.2304,63.59954,45.73949
1366095,403.8836,205.4926,63.65575,45.77606
1366112,404.8557,205.8908,63.71048,45.8315
1366129,405.8364,206.0882,63.76549,45.85893
1366148,406.8144,206.3058,63.82013,45.88916
1366162,407.8226,206.3777,63.87624,45.89912
1366180,408.7707,206.5295,63.9288,45.92018
1366199,409.641,206.471,63.97687,45.91207
1366217,410.5699,206.4695,64.028,45.91186
1366236,411.2265,206.4838,64.06403,45.91385
1366251,411.7181,206.4048,64.09094,45.90289
1366267,412.4257,206.1827,64.12959,45.87206
1366284,412.8841,206.1667,64.15457,45.86984
1366300,413.391,206.0371,64.18214,45.85183
1366317,413.7774,206.084,64.20313,45.85835
1366333,414.0882,206.1979,64.21997,45.87417
1366350,414.4941,206.2827,64.24195,45.88595
1366368,414.8047,206.2971,64.25874,45.88794
1366383,415.105,206.4648,64.27496,45.91122
1366400,415.3217,206.5863,64.28665,45.92805
1366418,415.4595,206.8212,64.29408,45.96059
1366433,415.5825,207.13,64.3007,46.00331
1366449,415.6005,207.5266,64.30168,46.05807
1366466,415.5411,207.8952,64.29848,46.10888
1366484,415.5511,208.1745,64.29902,46.14731
1366502,415.6038,208.2511,64.30186,46.15784
1366518,415.6422,208.3648,64.30392,46.17347
1366534,415.6687,208.4621,64.30535,46.18683
1366550,415.693,208.6601,64.30666,46.214
1366567,415.7794,208.9383,64.31132,46.25213
1366585,415.7939,209.1791,64.3121,46.2851
1366600,415.8872,209.3911,64.31712,46.31409
1366617,415.9933,209.6994,64.32282,46.35619
1366630,416.0499,210.0805,64.32587,46.40815
1366647,416.1397,210.5191,64.3307,46.46782
1366663,416.312,210.7031,64.33995,46.49282
1366680,416.471,211.0363,64.3485,46.53801
1366696,416.5997,211.5812,64.3554,46.61179
1366714,416.7675,212.0523,64.3644,46.67539
1366730,416.9897,212.7139,64.37631,46.76448
1366747,417.193,213.5718,64.3872,46.87955
1366764,417.3951,214.5698,64.39802,47.01279
1366780,417.7151,215.746,64.41512,47.16899
1366797,418.033,216.9944,64.43209,47.33377
1366817,418.4125,218.396,64.45233,47.51756
1366834,418.814,219.8069,64.47371,47.70127
1366848,419.2612,221.4475,64.49747,47.91327
1366863,419.6855,223.2612,64.52,48.14565
1366880,420.1852,225.2048,64.54646,48.39235
1366898,420.5444,226.6538,64.56545,48.57472
1366915,420.7195,227.8669,64.57471,48.7264
1366933,420.8008,228.9428,64.57899,48.86017
1366947,420.735,230.2117,64.57552,49.01701
1366963,420.7358,231.3372,64.57556,49.15532
1366981,420.6546,232.3058,64.57127,49.27371
1367001,420.4399,232.9177,64.55993,49.34822
1367014,420.1977,233.9179,64.54712,49.46953
1367034,419.9577,235.1267,64.53442,49.61533
1367050,419.6075,236.4929,64.51585,49.77908
1367065,419.2986,237.7957,64.49946,49.93422
1367084,419.0368,239.0123,64.48556,50.07818
1367100,418.7577,240.2778,64.47071,50.22703
1367117,418.4236,241.7327,64.45292,50.397
1367134,418.2145,242.9025,64.44178,50.53278
1367151,418.0484,243.764,64.43291,50.6323
1367167,418.0329,244.5056,64.43209,50.71762
1367184,418.008,245.4834,64.43076,50.82964
1367206,417.934,246.2435,64.42681,50.91636
1367216,417.8737,247.2881,64.4236,51.03499
1367232,417.8307,248.2988,64.4213,51.14921
1367251,417.8762,249.1847,64.42373,51.24887
1367266,417.8176,250.2664,64.4206,51.36996
1367282,417.6955,251.5956,64.41407,51.51788
1367300,417.4408,253.0509,64.40046,51.67875
1367316,417.1686,254.4868,64.38589,51.83636
1367331,416.8455,255.7197,64.36858,51.97081
1367350,416.5059,256.9262,64.35036,52.10161
1367367,416.0176,258.1276,64.32413,52.23109
1367384,415.5278,259.4966,64.29777,52.37773
1367400,415.0865,260.3457,64.27396,52.46819
1367416,414.5924,261.424,64.24727,52.58254
1367441,414.0366,262.396,64.21718,52.6851
1367454,413.4663,263.651,64.18623,52.81683
1367468,412.7907,264.9684,64.14949,52.95424
1367484,411.9451,266.3071,64.10335,53.09299
1367502,411.0239,267.3915,64.05292,53.20473
1367519,410.0461,268.7363,63.99919,53.34249
1367536,409.0479,269.9473,63.94413,53.46579
1367553,407.9442,271.2279,63.88299,53.59541
1367568,406.8329,272.4476,63.82116,53.71812
1367585,405.8773,273.4236,63.76778,53.81581
1367602,405.011,274.4034,63.71921,53.91341
1367617,403.9734,275.915,63.66081,54.06311
1367635,402.8879,277.2831,63.59946,54.19767
1367652,401.63,278.7022,63.52803,54.33633
1367667,400.4285,279.7325,63.45948,54.43641
1367684,399.2633,280.6544,63.39268,54.52556
1367701,397.7671,282.1979,63.30644,54.67395
1367720,396.1776,283.8248,63.21425,54.82917
1367737,394.7079,284.8809,63.12849,54.92931
1367754,393.0905,285.1554,63.03352,54.95526
1367770,391.4055,285.6531,62.93392,55.00221
1367787,389.493,286.253,62.82005,55.05867
1367804,387.5212,287.0999,62.70171,55.1381
1367819,385.2578,287.7647,62.56469,55.20023
1367836,382.2993,288.4772,62.38367,55.2666
1367853,379.4792,289.0759,62.20906,55.3222
1367870,376.1537,289.6741,62.00053,55.3776
1367886,372.8129,290.3818,61.78812,55.44294
1367904,369.7817,290.863,61.59283,55.48724
1367919,366.3029,291.0541,61.36562,55.5048
1367936,363.0261,291.2728,61.14855,55.52489
1367954,358.8888,291.7181,60.87014,55.56573
1367978,356.4902,292.0713,60.70647,55.59805
1367990,353.9271,292.4066,60.52973,55.62869
1368003,351.2092,292.7216,60.34017,55.65742
1368018,348.1943,293.0965,60.12729,55.69158
1368037,345.4637,293.4479,59.93208,55.72354
1368054,342.848,293.9411,59.74289,55.7683
1368070,340.2052,294.3945,59.54956,55.80936
1368087,337.9109,294.4209,59.3799,55.81175
1368103,335.627,294.59,59.2093,55.82704
1368120,333.2057,294.6246,59.02656,55.83016
1368140,331.6477,294.6882,58.90794,55.83591
1368153,329.7556,294.9531,58.76278,55.85983
1368171,327.828,295.0449,58.61364,55.86811
1368188,326.0228,294.7886,58.4728,55.84498
1368205,324.4035,294.8747,58.34549,55.85276
1368221,322.7512,294.9107,58.21465,55.856
1368238,321.2684,295.2832,58.09639,55.8896
1368254,319.6239,295.5396,57.96433,55.91268
1368272,318.1302,295.7089,57.84352,55.92791
1368286,316.5356,295.5535,57.71364,55.91393
1368303,314.8505,295.2962,57.57539,55.89077
1368321,313.2357,295.2223,57.4419,55.8841
1368336,311.7857,295.206,57.3212,55.88264
1368352,310.0502,295.2607,57.17569,55.88757
1368369,308.1701,295.2702,57.01675,55.88842
1368386,306.5231,295.033,56.87638,55.86703
1368403,304.7164,294.7627,56.72119,55.84264
1368420,302.8701,294.825,56.56126,55.84826
1368438,301.1296,294.9674,56.40924,55.86112
1368453,299.3652,295.2271,56.25389,55.88453
1368470,297.6236,295.2338,56.09931,55.88514
1368488,295.8928,295.2375,55.94444,55.88547
1368502,294.1011,295.1043,55.78279,55.87347
1368521,292.3662,294.9744,55.625,55.86175
1368537,290.7239,295.0232,55.47445,55.86615
1368554,289.1501,294.9105,55.32908,55.85598
1368571,287.4256,294.8435,55.16856,55.84994
1368588,285.82,294.5107,55.01793,55.81987
1368603,284.2997,294.2232,54.87426,55.79386
1368621,282.7732,293.7982,54.72897,55.75534
1368638,281.2194,293.5567,54.58,55.73342
1368653,279.6092,293.3975,54.42447,55.71896
1368670,278.0869,293.1416,54.27633,55.69568
1368689,276.6314,292.8688,54.13369,55.67084
1368703,275.3589,292.4164,54.00817,55.62958
1368721,274.0781,292.1063,53.88106,55.60125
1368738,272.7912,291.8273,53.75257,55.57572
1368754,271.4463,291.5548,53.61744,55.55076
1368771,270.3225,291.239,53.50385,55.52178
1368787,269.0602,290.8996,53.37555,55.4906
1368804,267.8694,290.5852,53.25379,55.46167
1368820,266.755,290.3806,53.13921,55.44283
1368837,265.4575,290.1368,53.00504,55.42034
1368855,264.3298,290.0704,52.88774,55.41422
1368871,263.2174,289.7878,52.77141,55.38811
1368887,262.0701,289.5596,52.65077,55.367
1368903,260.8893,289.1114,52.52591,55.32549
1368920,259.7018,288.7437,52.39963,55.29136
1368937,258.4433,288.323,52.265,55.25225
1368953,257.2119,287.8008,52.13247,55.20359
1368970,255.8383,287.3324,51.9837,55.15985
1368987,254.3188,286.682,51.81798,55.09894
1369004,252.7324,286.05,51.64364,55.03959
1369021,251.3266,285.4955,51.48803,54.98735
1369037,249.8428,285.0494,51.32261,54.94524
1369053,248.1464,284.4636,51.13202,54.8898
1369072,246.4143,283.681,50.93579,54.8155
1369091,244.8474,282.9743,50.75683,54.74817
1369104,243.1009,282.1883,50.55575,54.67302
1369120,241.2348,281.5806,50.33897,54.61473
1369138,239.5765,280.7446,50.14465,54.53426
1369153,237.5591,279.7957,49.90611,54.44254
1369170,235.7065,279.1912,49.68496,54.3839
1369187,233.9299,278.2068,49.47099,54.28804
1369203,231.9904,277.3151,49.23522,54.20081
1369220,230.2343,276.4976,49.01979,54.12052
1369235,228.199,275.5009,48.76777,54.02221
1369254,226.5121,274.6412,48.55695,53.93704
1369271,224.8289,273.9465,48.34482,53.86795
1369289,223.3076,273.2032,48.15156,53.79379
1369305,221.5875,272.3644,47.93129,53.70978
1369322,220.1334,271.7593,47.7436,53.64896
1369338,218.6944,271.1661,47.55652,53.58917
1369355,217.3601,270.37,47.38185,53.50866
1369374,216.0797,269.8279,47.21313,53.45367
1369389,214.8982,269.2542,47.0565,53.39531
1369407,213.81,268.675,46.91141,53.33624
1369424,212.917,268.0282,46.79176,53.27006
1369440,211.9798,267.3932,46.66561,53.20491
1369457,210.8203,266.5501,46.50873,53.11808
1369476,209.7656,265.8345,46.36523,53.04411
1369492,208.894,265.2564,46.24607,52.98416
1369504,207.8438,264.6365,46.1018,52.9197
1369525,206.8009,263.9984,45.95778,52.85315
1369547,205.521,263.1808,45.78001,52.76756
1369560,204.6062,262.7541,45.65224,52.72277
1369575,203.4925,262.3266,45.49592,52.6778
1369590,202.3813,261.824,45.33907,52.62481
1369610,201.3889,261.3288,45.19826,52.57247
1369623,200.4682,260.8518,45.06699,52.52193
1369640,199.5796,260.3786,44.93972,52.47169
1369657,198.7677,259.9466,44.82294,52.42572
1369673,198.0321,259.6368,44.71673,52.39269
1369690,197.4174,259.386,44.62767,52.36592
1369707,196.8694,259.2442,44.54804,52.35077
1369727,196.4025,258.9822,44.48003,52.32275
1369739,195.9223,258.8516,44.40992,52.30876
1369756,195.537,258.7609,44.35354,52.29905
1369774,195.1228,258.7924,44.2928,52.30243
1369792,194.9007,258.7604,44.26018,52.299
1369809,194.6924,258.7602,44.22956,52.29898
1369828,194.5164,258.6476,44.20366,52.28691
1369841,194.3561,258.4592,44.18005,52.26671
1369858,194.2823,258.4441,44.16919,52.26508
1369875,194.2425,258.3374,44.16331,52.25363
1369890,194.175,258.3945,44.15336,52.25976
1369907,194.2045,258.4281,44.15771,52.26337
1369923,194.2005,258.6431,44.15713,52.28643
1369940,194.2567,258.7908,44.16541,52.30225
1369958,194.2978,258.9046,44.17147,52.31445
1369972,194.3433,258.907,44.17817,52.3147
1369989,194.3589,259.0252,44.18047,52.32735
1370007,194.3905,259.2851,44.18512,52.35514
1370023,194.469,259.2263,44.19668,52.34886
1370040,194.506,259.3591,44.20213,52.36305
1370055,194.5072,259.2287,44.20231,52.34911
1370075,194.5678,259.2145,44.21124,52.34759
1370090,194.6678,259.2076,44.22595,52.34685
1370112,194.7148,259.0406,44.23286,52.32899
1370123,194.714,259.2024,44.23274,52.3463
1370140,194.6954,259.0326,44.23001,52.32814
1370158,194.7152,259.1556,44.23291,52.3413
1370173,194.8355,259.2366,44.2506,52.34996
1370190,194.8994,259.0925,44.25999,52.33455
1370206,194.859,259.1839,44.25406,52.34432
1370225,194.8637,259.291,44.25475,52.35578
1370242,194.8566,259.2309,44.25371,52.34935
1370257,194.8362,259.1404,44.25071,52.33967
1370273,194.8197,258.9449,44.24828,52.31876
1370293,194.6996,258.8099,44.23063,52.3043
1370309,194.5712,258.7214,44.21173,52.29482
1370326,194.3896,258.72,44.18499,52.29467
1370342,194.2184,258.6874,44.15976,52.29118
1370356,194.0787,258.764,44.13916,52.29938
1370372,193.9418,258.7567,44.11895,52.2986
1370390,193.9082,258.7661,44.11398,52.29961
1370406,193.8363,258.8178,44.10337,52.30515
1370422,193.8183,258.9953,44.10072,52.32415
1370438,193.7686,259.0408,44.09337,52.32902
1370458,193.7223,259.1346,44.08652,52.33905
1370476,193.695,259.3455,44.0825,52.36159
1370493,193.6622,259.5088,44.07763,52.37903
1370509,193.6497,259.5832,44.07579,52.38697
1370522,193.6442,259.685,44.07498,52.39783
1370543,193.7016,259.4669,44.08346,52.37457
1370555,193.6449,259.5739,44.07508,52.38598
1370575,193.5789,259.8678,44.06533,52.41733
1370590,193.5896,259.8571,44.0669,52.41619
1370605,193.5352,260.0125,44.05886,52.43274
1370623,193.4713,260.2227,44.0494,52.45511
1370638,193.505,260.2062,44.05439,52.45335
1370654,193.4965,260.1954,44.05313,52.45221
1370673,193.4804,260.3953,44.05075,52.47347
1370689,193.4631,260.5316,44.04819,52.48795
1370707,193.4319,260.6599,44.04358,52.50157
1370722,193.436,260.7191,44.04418,52.50785
1370739,193.3899,260.8412,44.03735,52.52081
1370758,193.4078,260.8998,44.04,52.52703
1370772,193.435,260.8737,44.04403,52.52427
1370792,193.4518,260.7812,44.04652,52.51445
1370808,193.4825,260.794,44.05106,52.51581
1370825,193.5058,260.8159,44.05451,52.51812
1370840,193.5359,261.0351,44.05896,52.54137
1370855,193.6525,260.9749,44.0762,52.53499
1370873,193.6576,261.2772,44.07695,52.56701
1370889,193.6945,261.2971,44.08242,52.56912
1370907,193.7476,261.3085,44.09026,52.57032
1370923,193.7643,261.3755,44.09273,52.5774
1370940,193.8185,261.3331,44.10073,52.57292
1370956,193.8107,261.4525,44.09959,52.58555
1370974,193.8404,261.4722,44.10397,52.58764
1370990,193.8277,261.5492,44.1021,52.59578
1371006,193.7991,261.5452,44.09788,52.59536
1371024,193.765,261.4584,44.09284,52.58617
1371039,193.7378,261.6569,44.08881,52.60715
1371055,193.6741,261.8312,44.0794,52.62557
1371075,193.6347,261.889,44.07358,52.63167
1371090,193.5774,262.011,44.0651,52.64454
1371107,193.6391,261.7086,44.07423,52.61262
1371123,193.6353,261.6568,44.07367,52.60715
1371142,193.584,261.6346,44.06608,52.60481
1371157,193.5928,261.485,44.06737,52.589
1371173,193.5563,261.4551,44.06198,52.58583
1371192,193.5753,261.3852,44.06479,52.57844
1371209,193.5947,261.2562,44.06765,52.56478
1371227,193.6342,261.3001,44.0735,52.56943
1371245,193.6902,261.2762,44.08178,52.5669
1371261,193.7758,261.2746,44.09443,52.56673
1371279,193.9002,261.1682,44.11281,52.55547
1371295,194.1032,261.1316,44.14277,52.55159
1371314,194.2566,261.0997,44.16539,52.54822
1371331,194.4082,261.1145,44.18773,52.54978
1371342,194.5825,261.2995,44.21339,52.56937
1371360,194.7769,261.2542,44.24199,52.56458
1371379,194.9633,261.2238,44.26939,52.56135
1371394,195.1741,261.1692,44.30033,52.55558
1371413,195.2945,261.2322,44.31799,52.56224
1371429,195.3552,261.0625,44.3269,52.54427
1371445,195.3903,261.0204,44.33204,52.53981
1371460,195.4238,260.8739,44.33694,52.52428
1371476,195.3962,260.795,44.3329,52.51591
1371494,195.3585,260.676,44.32738,52.50328
1371509,195.3583,260.5718,44.32735,52.49222
1371529,195.2509,260.5553,44.3116,52.49047
