Time Stamp(ms),Intersection,,Angle,
,x,y,x,y
1400487,332.0301,248.6306,58.93713,51.18658
1400503,331.8116,248.4955,58.92046,51.17138
1400520,331.1428,248.274,58.86932,51.14641
1400536,330.4757,247.8705,58.81816,51.10088
1400553,329.7969,247.1773,58.76596,51.02244
1400569,328.9914,245.7919,58.7038,50.86487
1400588,328.1841,244.2233,58.64128,50.68517
1400604,327.436,242.6562,58.58315,50.50427
1400620,326.6593,241.422,58.52259,50.36081
1400635,325.8751,240.2503,58.46122,50.2238
1400652,325.3058,239.5133,58.41654,50.13721
1400669,324.9767,238.9249,58.39067,50.06787
1400686,324.8718,238.816,58.38241,50.05501
1400701,324.8782,238.5256,58.38291,50.02069
1400719,324.9713,238.3837,58.39024,50.0039
1400736,325.3094,238.4136,58.41682,50.00745
1400755,325.6509,238.5968,58.44365,50.02911
1400770,325.8839,238.639,58.46191,50.0341
1400787,326.0185,238.5672,58.47246,50.02561
1400803,326.0874,238.3613,58.47786,50.00125
1400819,326.0124,238.0531,58.47198,49.96475
1400836,325.875,237.911,58.46122,49.9479
1400854,325.7246,237.6424,58.44942,49.91601
1400870,325.4768,237.7477,58.42997,49.92852
1400886,325.2321,237.858,58.41075,49.9416
1400904,324.9219,238.3847,58.38635,50.00402
1400920,324.6461,238.886,58.36463,50.06327
1400937,324.3275,239.5877,58.3395,50.14597
1400953,323.9548,240.479,58.31006,50.2506
1400971,323.5805,241.558,58.28045,50.37665
1400988,323.136,242.6339,58.24521,50.50168
1401002,322.5651,243.7533,58.19985,50.63106
1401019,321.9941,244.9733,58.15437,50.77127
1401037,321.3503,245.9967,58.10295,50.88823
1401054,320.6136,246.4299,58.04393,50.93756
1401070,319.9283,246.8252,57.98885,50.9825
1401088,319.2341,247.1507,57.93288,51.01942
1401101,318.4894,247.504,57.87265,51.05944
1401121,317.7845,247.7319,57.81544,51.08522
1401136,317.1335,248.1191,57.76245,51.12894
1401152,316.5576,248.3298,57.71545,51.15271
1401169,315.8914,248.8772,57.66092,51.21432
1401187,315.3207,249.2791,57.61407,51.25945
1401202,314.7044,249.7874,57.56335,51.31641
1401220,314.1248,250.3478,57.51551,51.37904
1401236,313.5713,251.0109,57.46972,51.45293
1401252,312.9765,251.4912,57.42038,51.5063
1401270,312.4292,252.1562,57.37486,51.57999
1401285,311.9271,252.7516,57.33301,51.64575
1401302,311.4418,253.5283,57.29246,51.73127
1401320,311.1226,254.0782,57.26574,51.79163
1401339,310.8095,254.7628,57.23949,51.86653
1401355,310.5763,255.3178,57.21991,51.92707
1401373,310.3615,255.8575,57.20187,51.98579
1401390,310.1921,256.0951,57.18763,52.01159
1401405,310.1093,256.6417,57.18066,52.07084
1401422,310.0645,257.0557,57.17688,52.1156
1401439,310.0143,257.2626,57.17266,52.13794
1401454,309.8965,257.6236,57.16275,52.17686
1401474,309.8295,257.9093,57.15709,52.20762
1401492,309.7354,258.1158,57.14916,52.22983
1401506,309.6354,258.4437,57.14073,52.26504
1401522,309.5771,258.7559,57.13582,52.29852
1401539,309.5363,259.1037,57.13238,52.33575
1401556,309.5433,259.4581,57.13297,52.37362
1401573,309.4988,259.9383,57.12922,52.42483
1401591,309.4881,260.2751,57.12831,52.46068
1401606,309.4686,260.6621,57.12666,52.50181
1401623,309.4448,261.0139,57.12465,52.53913
1401641,309.425,261.1543,57.12298,52.554
1401656,309.4225,261.3187,57.12277,52.5714
1401671,309.4533,261.6114,57.12537,52.60235
1401691,309.4985,261.7267,57.12919,52.61454
1401706,309.5698,261.9055,57.1352,52.6334
1401720,309.6255,261.949,57.1399,52.638
1401739,309.6599,261.8709,57.1428,52.62975
1401755,309.6497,261.8395,57.14194,52.62645
1401774,309.6692,261.7566,57.14359,52.61769
1401790,309.616,261.7658,57.1391,52.61867
1401805,309.5742,261.7171,57.13557,52.61352
1401822,309.5613,261.7173,57.13449,52.61354
1401839,309.5689,261.59,57.13513,52.60009
1401854,309.5769,261.566,57.1358,52.59755
1401872,309.61,261.5478,57.1386,52.59563
1401888,309.636,261.4846,57.14079,52.58895
1401905,309.6553,261.369,57.14241,52.57672
1401922,309.7061,261.4382,57.14669,52.58404
1401939,309.7483,261.4919,57.15026,52.58972
1401956,309.8913,261.4165,57.1623,52.58175
1401972,309.9465,261.4081,57.16695,52.58086
1401988,310.0143,261.2686,57.17266,52.5661
1402004,310.0695,261.3987,57.17731,52.57986
1402021,310.0775,261.1447,57.17799,52.55298
1402038,310.0555,261.0088,57.17613,52.53858
1402053,310.0471,260.92,57.17542,52.52917
1402071,310.0436,260.984,57.17513,52.53595
1402088,310.0605,260.952,57.17655,52.53256
1402105,310.0637,260.9765,57.17682,52.53516
1402121,310.0741,260.9735,57.1777,52.53484
1402137,310.1219,260.8104,57.18172,52.51754
1402156,310.1464,260.8346,57.18378,52.52011
1402172,310.1414,260.7976,57.18336,52.51619
1402188,310.0603,260.7485,57.17654,52.51097
1402205,309.988,260.8411,57.17045,52.5208
1402222,309.9191,260.8977,57.16464,52.52681
1402240,309.8106,261.0044,57.1555,52.53812
1402255,309.7249,261.006,57.14828,52.53828
1402272,309.6718,261.2564,57.1438,52.5648
1402290,309.6161,261.424,57.13911,52.58255
1402305,309.6052,261.6953,57.13818,52.61122
1402322,309.6355,261.9878,57.14075,52.64209
1402341,309.6915,262.1937,57.14547,52.6638
1402357,309.782,262.4667,57.15309,52.69255
1402370,309.8418,262.7494,57.15813,52.72228
1402388,309.8989,262.9965,57.16294,52.74823
1402404,309.9425,263.2555,57.16661,52.7754
1402422,310.0222,263.4928,57.17333,52.80027
1402439,310.0934,263.6636,57.17932,52.81815
1402455,310.1205,263.7344,57.18161,52.82555
1402472,310.151,263.763,57.18417,52.82854
1402489,310.1606,264.004,57.18497,52.85373
1402505,310.153,264.0993,57.18434,52.86368
1402524,310.1311,264.2299,57.18249,52.87731
1402539,310.1451,264.2487,57.18367,52.87927
1402555,310.1744,264.2915,57.18614,52.88375
1402571,310.1796,264.3718,57.18658,52.89211
1402588,310.1837,264.4605,57.18692,52.90137
1402610,310.1961,264.5117,57.18796,52.9067
1402625,310.2603,264.5014,57.19337,52.90563
1402644,310.3163,264.6179,57.19807,52.91777
1402657,310.3819,264.5438,57.20358,52.91004
1402672,310.532,264.5765,57.21619,52.91345
1402690,310.6147,264.593,57.22314,52.91518
1402708,310.6898,264.6577,57.22945,52.92191
1402723,310.7735,264.606,57.23647,52.91653
1402742,310.843,264.6086,57.2423,52.91679
1402758,310.6941,264.5465,57.22981,52.91032
1402773,310.6897,264.5382,57.22944,52.90947
1402791,310.6721,264.5163,57.22795,52.90718
1402807,310.6826,264.4738,57.22884,52.90275
1402824,310.7201,264.3944,57.23199,52.89447
1402841,310.7169,264.4836,57.23172,52.90377
1402857,310.7614,264.4254,57.23545,52.8977
1402875,310.7921,264.4699,57.23803,52.90235
1402892,310.7784,264.459,57.23688,52.90121
1402909,310.8028,264.3768,57.23893,52.89264
1402923,310.7717,264.3244,57.23632,52.88717
1402941,310.7295,264.461,57.23277,52.90141
1402962,310.7225,264.4187,57.23219,52.89701
1402976,310.6558,264.4225,57.22659,52.8974
1402993,310.5997,264.4711,57.22188,52.90247
1403010,310.5655,264.445,57.21901,52.89975
1403025,310.5749,264.3735,57.2198,52.8923
1403044,310.6095,264.4178,57.22271,52.89691
1403058,310.6461,264.3934,57.22577,52.89437
1403072,310.7167,264.5159,57.2317,52.90714
1403091,310.7814,264.6974,57.23713,52.92604
1403112,310.8125,264.8881,57.23974,52.94589
1403129,310.8808,265.0029,57.24547,52.95783
1403144,310.885,265.2058,57.24582,52.97891
1403158,310.8781,265.2686,57.24524,52.98544
1403174,310.8813,265.5234,57.24552,53.01187
1403192,310.8697,265.8342,57.24454,53.04408
1403208,310.8977,266.2227,57.24688,53.08427
1403224,310.9345,266.5871,57.24997,53.12189
1403241,310.9798,267.1677,57.25377,53.18172
1403258,311.1036,267.7054,57.26414,53.23696
1403275,311.2475,268.5404,57.2762,53.32248
1403292,311.3423,269.4926,57.28413,53.41958
1403308,311.5316,270.7533,57.29996,53.54747
1403325,311.6725,272.1365,57.31174,53.68689
1403342,311.7198,273.8906,57.31569,53.86239
1403360,311.6647,275.3073,57.31109,54.00306
1403375,311.714,276.9288,57.3152,54.16291
1403392,311.6964,278.5092,57.31374,54.31753
1403408,311.6531,280.0262,57.31012,54.46486
1403424,311.5893,281.95,57.30479,54.65018
1403442,311.4556,283.7961,57.29361,54.82645
1403460,311.342,285.4918,57.2841,54.98701
1403474,311.1915,287.5642,57.2715,55.18151
1403491,310.9722,289.547,57.25313,55.36584
1403507,310.5828,291.2861,57.22046,55.52611
1403525,310.182,293.107,57.18678,55.69253
1403542,309.8013,294.627,57.15472,55.83038
1403560,309.2876,296.0833,57.11138,55.96154
1403575,308.8282,297.3124,57.07254,56.07155
1403592,308.3113,298.606,57.02873,56.18665
1403609,307.8104,299.8303,56.98618,56.29496
1403625,307.342,301.2303,56.9463,56.41808
1403641,306.8815,302.6494,56.90702,56.54205
1403658,306.4097,304.0753,56.86668,56.66581
1403676,306.0684,305.3364,56.83744,56.77459
1403692,305.7973,306.5585,56.81419,56.87941
1403709,305.5209,307.9876,56.79045,57.00124
1403725,305.3326,309.1476,56.77427,57.09955
1403741,305.1655,310.2921,56.75989,57.19604
1403758,305.0449,311.3157,56.7495,57.28191
1403773,304.9059,312.4505,56.73753,57.37663
1403792,304.9411,313.2931,56.74056,57.44666
1403808,304.933,314.2175,56.73986,57.52317
1403825,304.9942,315.1861,56.74514,57.603
1403843,305.0586,315.8522,56.75068,57.6577
1403857,305.0839,316.5374,56.75286,57.71379
1403874,305.1913,316.9552,56.76211,57.74791
1403891,305.2735,317.6317,56.76918,57.80301
1403909,305.3755,318.0832,56.77795,57.8397
1403925,305.4368,318.6141,56.78322,57.88275
1403943,305.4618,319.0253,56.78537,57.91601
1403958,305.4285,319.4138,56.78251,57.94738
1403975,305.3784,319.7686,56.7782,57.97599
1403991,305.3146,320.1658,56.77271,58.00795
1404009,305.1518,320.6069,56.75871,58.04338
1404025,304.9893,320.7642,56.74471,58.056
1404041,304.7629,321.093,56.7252,58.08235
1404057,304.5229,321.1729,56.70449,58.08875
1404073,304.2582,321.2641,56.68163,58.09605
1404090,303.8223,321.4167,56.64391,58.10826
1404108,303.3931,321.511,56.6067,58.1158
1404127,302.8775,321.5594,56.5619,58.11967
1404142,302.3976,321.5666,56.52011,58.12024
1404159,301.7485,321.7777,56.46344,58.1371
1404176,300.7544,322.1556,56.37632,58.16724
1404197,299.9306,322.1601,56.30381,58.16761
1404210,298.8015,322.4041,56.20399,58.18703
1404226,297.6261,322.4272,56.09953,58.18888
1404244,296.0402,322.5267,55.95767,58.1968
1404260,294.469,322.7122,55.8161,58.21154
1404278,293.0205,322.6902,55.68466,58.2098
1404293,290.8816,322.8501,55.48895,58.22251
1404310,288.877,323.1119,55.30375,58.2433
1404326,286.8383,323.3866,55.1136,58.26508
1404341,284.2268,323.4161,54.86735,58.26742
1404363,282.085,323.313,54.66312,58.25925
1404376,279.9451,323.399,54.45701,58.26606
1404392,277.1457,323.6013,54.1842,58.28209
1404411,275.0005,323.6875,53.97268,58.28892
1404425,272.641,323.761,53.73751,58.29473
1404442,270.1167,323.8765,53.48299,58.30387
1404458,267.705,323.8628,53.23692,58.30279
1404474,265.227,323.9893,52.98111,58.31278
1404492,262.6842,323.9643,52.71543,58.31081
1404508,260.1779,323.9493,52.45035,58.30963
1404527,257.7732,324.1271,52.19298,58.32367
1404544,255.6027,324.1591,51.95809,58.3262
1404561,253.5373,324.2176,51.73226,58.33082
1404576,251.2849,324.0515,51.48339,58.3177
1404591,249.1778,324.0002,51.24809,58.31365
1404608,247.2204,324.0555,51.02732,58.31802
1404624,245.245,324.0771,50.80238,58.31973
1404642,243.3143,324.0869,50.58041,58.3205
1404661,241.5954,323.8433,50.38102,58.30124
1404676,239.4726,323.8375,50.13243,58.30078
1404698,238.1236,323.7486,49.97311,58.29375
1404712,236.8129,323.6915,49.81728,58.28923
1404729,235.7001,323.492,49.6842,58.27343
1404745,234.5422,323.193,49.54494,58.24973
1404761,233.6898,322.6913,49.44192,58.20989
1404778,232.8946,322.2946,49.34541,58.17832
1404794,232.2809,321.9324,49.27068,58.14944
1404813,231.6917,321.4222,49.19871,58.1087
1404829,231.0506,320.6432,49.12016,58.0463
1404845,230.4,320.0103,49.0402,57.99545
1404864,229.7988,319.1767,48.96608,57.92824
1404879,229.1526,318.1119,48.88617,57.84203
1404895,228.3073,317.1321,48.78124,57.76234
1404913,227.3644,316.1662,48.66368,57.68343
1404928,226.2835,314.8417,48.52824,57.57466
1404946,225.2207,313.4461,48.39436,57.45935
1404962,224.2046,312.0076,48.26569,57.33972
1404978,223.1727,310.2783,48.13436,57.19487
1404996,222.2601,308.4841,48.01765,57.04338
1405012,221.4851,307.0121,47.91811,56.91816
1405028,220.7756,305.0967,47.82666,56.75396
1405047,220.264,303.3199,47.76051,56.60035
1405061,219.8311,300.788,47.70441,56.37926
1405080,219.453,298.5952,47.6553,56.1857
1405097,218.9729,295.3633,47.59283,55.89681
1405115,218.5055,292.609,47.53186,55.64716
1405130,218.0796,289.8598,47.47618,55.39476
1405144,217.7026,286.991,47.42679,55.1279
1405161,217.3704,283.9191,47.38319,54.83814
1405181,217.0064,280.8657,47.33534,54.54593
1405199,216.6758,278.3254,47.29182,54.29961
1405214,216.3087,274.9642,47.24339,53.96907
1405229,215.8171,272.1988,47.17839,53.69315
1405245,215.4818,269.1415,47.13398,53.38383
1405263,215.147,265.8234,47.08955,53.04296
1405280,214.7021,262.776,47.03041,52.72507
1405295,214.1852,259.6786,46.96152,52.39716
1405313,213.6576,256.6465,46.89103,52.07136
1405329,213.1429,253.8736,46.82207,51.76918
1405344,212.5246,251.0862,46.73901,51.4613
1405362,211.99,248.3776,46.66699,51.15809
1405377,211.454,245.4483,46.59458,50.82563
1405397,211.0098,243.1798,46.53443,50.56486
1405411,210.5391,240.4412,46.47054,50.24618
1405429,210.1366,237.9022,46.41578,49.94685
1405444,209.6994,235.2081,46.3562,49.62513
1405465,209.3789,232.7318,46.31243,49.32561
1405480,209.0682,229.9758,46.26992,48.98793
1405497,208.7974,227.2574,46.23283,48.65031
1405513,208.6307,224.5855,46.20996,48.314
1405530,208.5599,221.5709,46.20026,47.92915
1405546,208.4943,217.854,46.19125,47.44663
1405562,208.3955,214.5685,46.17767,47.01262
1405579,208.6329,209.1767,46.21026,46.28477
1405610,208.8475,206.1343,46.23969,45.86534
1405630,209.1436,202.4227,46.28024,45.34493
1405647,209.439,198.827,46.32063,44.83149
1405668,209.7781,195.6997,46.36694,44.37737
1405682,209.9074,193.7476,46.38456,44.09027
1405696,209.9629,192.5326,46.39213,43.91016
1405706,210.0337,191.105,46.40177,43.69713
1405717,210.1941,189.3228,46.42361,43.42906
1405732,210.2602,187.7449,46.43262,43.18971
1405747,210.2803,186.3745,46.43535,42.9803
1405762,210.3072,184.9499,46.43901,42.76109
1405778,210.266,183.685,46.4334,42.56514
1405795,210.1984,182.5965,46.4242,42.39552
1405814,210.1473,181.5619,46.41724,42.23346
1405830,210.1143,180.6579,46.41275,42.09118
1405846,210.0813,180.0189,46.40825,41.99021
1405866,210.2307,179.3109,46.4286,41.87796
1405887,210.3946,178.8552,46.4509,41.80551
1405898,210.548,178.5222,46.47174,41.75245
1405912,210.682,178.1712,46.48995,41.69644
1405934,210.8324,177.6131,46.51037,41.60717
1405943,211.1071,177.2381,46.54762,41.54705
1405963,211.4205,177.0643,46.59005,41.51915
1405980,211.682,176.8716,46.6254,41.48819
1405994,211.9297,176.4954,46.65886,41.42766
1406012,212.1082,176.559,46.68292,41.43791
1406027,212.3433,176.7016,46.7146,41.46086
1406050,212.5422,177.1492,46.74139,41.53279
1406062,212.8867,177.778,46.78769,41.63358
1406080,213.2605,178.3595,46.83784,41.7265
1406096,213.6002,178.8643,46.88335,41.80695
1406116,213.9651,179.752,46.93214,41.94793
1406133,214.2588,180.2857,46.97134,42.0324
1406150,214.7075,181.3236,47.03113,42.19602
1406166,215.7412,183.4207,47.16835,42.52404
1406184,216.2944,184.38,47.24151,42.67297
1406195,217.3757,186.3166,47.3839,42.97143
1406212,218.8978,189.1852,47.58304,43.40825
1406233,220.51,192.8481,47.79234,43.95703
1406248,222.1279,196.9097,48.00069,44.55391
1406262,224.1953,201.5522,48.26451,45.22148
1406279,226.5216,206.1633,48.55813,45.86936
1406298,228.7006,210.7048,48.83012,46.49305
1406315,230.366,214.3078,49.03602,46.97788
1406331,231.9256,217.0647,49.2273,47.34302
1406348,233.0425,218.9335,49.36339,47.58769
1406364,233.7369,220.1747,49.44762,47.74895
1406382,234.1489,221.1259,49.49746,47.87186
1406398,234.6171,222.256,49.55398,48.01712
1406413,235.1083,223.8289,49.61312,48.21794
1406432,235.4777,225.2212,49.65752,48.39442
1406449,235.9176,226.7938,49.71027,48.59227
1406464,236.4822,228.9217,49.77781,48.85755
1406481,237.2021,230.895,49.86366,49.10107
1406499,237.8812,232.4624,49.94436,49.29281
1406515,238.5699,234.1414,50.02592,49.49656
1406532,239.2925,235.808,50.11122,49.69714
1406550,240.2285,237.7799,50.22124,49.93234
1406565,241.2871,239.4166,50.34507,50.12583
1406582,242.0471,240.2658,50.43357,50.22561
1406597,242.8792,241.1369,50.53009,50.32755
1406616,243.7062,242.0335,50.62563,50.43199
1406633,244.4426,243.1566,50.71038,50.56219
1406649,245.2036,244.2102,50.79764,50.68367
1406666,245.9185,244.9462,50.87932,50.76816
1406682,246.5892,245.4053,50.95568,50.82071
1406699,247.2253,245.8821,51.02788,50.87517
1406716,247.8091,246.2999,51.09394,50.92278
1406732,248.4649,246.754,51.16793,50.9744
1406750,249.0362,247.3408,51.23219,51.04097
1406765,249.7079,247.633,51.30751,51.07404
1406781,250.3513,247.8811,51.37943,51.10207
1406798,251.0218,248.0993,51.45414,51.12671
1406822,251.6446,248.3461,51.52332,51.15454
1406835,252.1585,248.4047,51.58024,51.16114
1406849,252.6857,248.2553,51.63849,51.14431
1406866,253.2113,248.0882,51.6964,51.12546
1406882,253.6794,247.8001,51.74786,51.09293
1406898,254.0548,247.5622,51.78906,51.06602
1406914,254.4221,247.0097,51.82928,51.00344
1406932,254.6601,246.6769,51.8553,50.96565
1406948,254.7942,246.2933,51.86996,50.92203
1406966,254.8843,246.1356,51.8798,50.90406
1406981,255.027,246.0191,51.89537,50.89079
1406999,255.1426,246.0676,51.90797,50.89632
1407015,255.204,246.1589,51.91467,50.90672
1407033,255.2363,246.3901,51.91819,50.93304
1407049,255.3447,246.5778,51.93,50.95439
1407066,255.4719,246.7782,51.94385,50.97715
1407081,255.6469,246.9733,51.96289,50.99931
1407098,255.8595,247.1748,51.986,51.02216
1407117,256.0848,247.4043,52.01048,51.04815
1407134,256.36,247.1453,52.04032,51.01881
1407151,256.5901,247.0506,52.06525,51.00808
1407177,256.8636,247.0672,52.09484,51.00996
1407191,257.0318,247.1514,52.11302,51.0195
1407202,257.2182,247.1195,52.13315,51.01588
1407217,257.4355,246.9577,52.15659,50.99753
1407234,257.5867,246.9075,52.17289,50.99184
1407249,257.8155,246.7404,52.19753,50.97287
1407269,258.057,246.6387,52.22351,50.96131
1407285,258.2103,246.7742,52.23998,50.9767
1407300,258.4285,246.8342,52.26341,50.98351
1407318,258.6205,246.8358,52.284,50.9837
1407334,258.7804,246.9687,52.30114,50.99878
1407356,258.9558,247.1454,52.31993,51.01883
1407368,259.1277,247.0469,52.33831,51.00765
1407384,259.3279,247.0237,52.35971,51.00502
1407400,259.5312,247.0614,52.38142,51.0093
1407417,259.7685,247.1187,52.40674,51.0158
1407433,260.0446,247.0491,52.43616,51.0079
1407450,260.3019,247.1496,52.46354,51.0193
1407466,260.6216,247.3826,52.49751,51.0457
1407482,260.988,247.4533,52.53637,51.0537
1407500,261.3946,247.7117,52.57943,51.08293
1407515,261.8765,248.0755,52.63034,51.12402
1407532,262.3993,248.4205,52.68545,51.16293
1407549,262.8817,248.678,52.73618,51.19192
1407566,263.3295,249.3199,52.78315,51.26403
1407583,263.8458,249.9052,52.8372,51.32959
1407604,264.3274,250.6575,52.88748,51.41359
1407616,264.8838,251.107,52.94544,51.46362
1407633,265.3852,251.7917,52.99753,51.53962
1407650,266.0039,252.6938,53.06165,51.63938
1407669,266.7015,253.6955,53.13369,51.74964
1407686,267.6143,254.4706,53.22761,51.83458
1407701,268.7913,254.8327,53.3481,51.87416
1407716,269.8247,255.2856,53.45335,51.92356
1407732,271.1597,255.5254,53.58853,51.94968
1407750,272.4633,255.3862,53.7197,51.93452
1407767,273.6125,254.4144,53.83466,51.82844
1407783,274.5792,253.1363,53.93088,51.68816
1407801,275.5107,252.3739,54.02318,51.60405
1407819,276.187,251.8709,54.08993,51.5484
1407834,276.7537,251.6009,54.14571,51.51847
1407851,277.3835,251.5308,54.20752,51.5107
1407868,277.9557,251.498,54.26351,51.50705
1407885,278.589,251.4355,54.32531,51.50012
1407902,279.2377,251.5142,54.38841,51.50885
1407919,279.8917,251.4863,54.45184,51.50575
1407935,280.5704,251.4638,54.51746,51.50326
1407951,281.4557,251.2259,54.60273,51.47683
1407970,282.3417,251.0911,54.68771,51.46185
1407986,283.2764,250.9047,54.77698,51.44111
1408001,284.4278,250.7647,54.88641,51.42553
1408018,285.5227,250.6423,54.98992,51.41189
1408037,286.6792,250.4664,55.09868,51.39228
1408055,287.7971,250.1911,55.20325,51.36155
1408070,288.8586,250.1547,55.30203,51.35748
1408086,289.8727,250.1895,55.39596,51.36137
1408102,290.9786,250.1598,55.49787,51.35805
1408120,291.9471,250.1679,55.58669,51.35896
