Time Stamp(ms),Intersection,,Angle,
,x,y,x,y
1095404,322.4183,233.8275,58.18817,49.4586
1095433,322.5443,234.28,58.1982,49.51329
1095460,322.6414,234.7057,58.20592,49.56465
1095488,322.3133,235.1249,58.17981,49.61512
1095517,321.9138,235.7373,58.14796,49.68866
1095542,321.7941,235.9303,58.13841,49.71178
1095567,321.9228,235.7071,58.14868,49.68504
1095593,322.2167,235.0966,58.17212,49.61171
1095621,322.6951,233.9411,58.21019,49.47234
1095648,323.2643,233.1464,58.25538,49.37601
1095676,323.9787,232.5741,58.31195,49.30641
1095703,324.7715,232.5443,58.37451,49.30278
1095735,325.359,232.5807,58.42073,49.30722
1095756,325.863,232.6467,58.46028,49.31525
1095789,326.2515,232.8046,58.4907,49.33447
1095838,326.4922,232.7883,58.50953,49.33249
1095859,326.4682,232.5125,58.50765,49.2989
1095878,326.5467,232.0477,58.51379,49.24221
1095899,326.6204,231.5629,58.51955,49.18295
1095929,326.7671,231.0713,58.531,49.12271
1095956,327.0442,230.3616,58.55262,49.03547
1095982,327.3709,229.3024,58.57808,48.90472
1096018,328.0391,227.8562,58.63003,48.72507
1096047,328.8629,226.3807,58.69387,48.54045
1096068,329.8414,225.049,58.76939,48.37266
1096095,331.303,223.4314,58.88159,48.16734
1096122,333.3073,221.2384,59.03427,47.88635
1096151,335.4109,219.0194,59.19308,47.59889
1096180,338.23,215.7435,59.4036,47.16866
1096204,341.6561,211.9778,59.65598,46.66534
1096231,345.3621,207.9181,59.92477,46.11203
1096257,349.5697,203.514,60.22474,45.49894
1096287,354.4613,198.9865,60.56672,44.85447
1096314,358.7123,195.4016,60.85815,44.33369
1096340,363.6784,192.0474,61.192,43.83792
1096375,369.4097,188.0745,61.5687,43.23986
1096397,375.3518,184.4222,61.94981,42.6795
1096426,381.5031,181.2158,62.33458,42.17906
1096454,387.278,178.5134,62.68705,41.75105
1096481,393.08,175.9738,63.0329,41.34354
1096509,399.1044,172.7633,63.38354,40.82099
1096536,404.5733,170.2838,63.6946,40.4117
1096562,409.7986,167.8795,63.98556,40.01002
1096590,415.1157,164.968,64.27554,39.51718
1096616,419.8214,162.2794,64.5272,39.05577
1096646,423.8936,160.5709,64.74129,38.7594
1096675,427.5772,159.2029,64.93208,38.52029
1096698,430.8311,158.7432,65.09837,38.43959
1096724,434.9327,157.9798,65.30508,38.30518
1096753,438.5756,157.1649,65.48598,38.16113
1096780,442.0604,156.6794,65.65672,38.07505
1096806,445.1544,155.9914,65.80646,37.9527
1096834,448.3635,155.7217,65.95995,37.90462
1096860,451.4081,155.4474,66.10387,37.85567
1096891,453.6762,154.5765,66.21004,37.69981
1096917,455.5654,154.0718,66.29781,37.60918
1096941,457.454,153.4791,66.38493,37.50247
1096966,459.3026,152.8525,66.46963,37.38932
1096996,461.41,152.385,66.56549,37.30468
1097029,463.0074,152.1476,66.63766,37.26162
1097065,464.1871,152.0661,66.69069,37.24683
1097094,464.7959,152.1149,66.71796,37.25569
1097125,464.9005,151.8192,66.72264,37.20198
1097158,464.6907,151.6796,66.71326,37.17661
1097192,464.1497,151.5115,66.68901,37.14602
1097222,463.5686,151.3825,66.66291,37.12253
1097253,462.7769,151.2943,66.62727,37.10647
1097298,462.2937,151.3699,66.60546,37.12025
1097320,461.729,151.7005,66.57993,37.18041
1097357,461.3173,151.8982,66.56129,37.21634
1097388,460.955,152.175,66.54485,37.26659
1097419,460.5596,152.284,66.52689,37.28638
1097450,459.9133,152.5658,66.49748,37.33744
1097488,459.4618,152.7511,66.4769,37.37098
1097517,458.9501,152.917,66.45352,37.40099
1097544,458.4146,153.3918,66.42902,37.48673
1097582,458.0412,153.9703,66.4119,37.59093
1097612,457.721,154.5676,66.3972,37.69821
1097644,457.5561,155.1298,66.38963,37.79891
1097677,457.3459,155.6805,66.37996,37.89728
1097708,457.1576,156.0196,66.3713,37.95772
1097744,456.8709,156.3752,66.3581,38.021
1097773,456.5918,156.7035,66.34524,38.07932
1097804,456.0474,157.2408,66.3201,38.17456
1097839,455.6009,157.5469,66.29945,38.22873
1097872,455.2587,158.0284,66.2836,38.31374
1097903,455.5451,157.8511,66.29687,38.28246
1097936,455.6702,157.8978,66.30266,38.2907
1097969,455.8665,157.919,66.31174,38.29445
1098001,456.2014,157.646,66.32722,38.24624
1098033,456.5423,157.6586,66.34295,38.24847
1098067,456.8166,157.5486,66.3556,38.22902
1098098,457.0064,157.6003,66.36434,38.23816
1098129,457.2456,157.575,66.37535,38.23368
1098163,457.2964,157.7508,66.37769,38.26475
1098193,457.2672,157.9715,66.37634,38.30371
1098224,457.1447,158.0866,66.3707,38.324
1098256,457.0854,158.1031,66.36797,38.32692
1098291,457.0376,158.0947,66.36578,38.32543
1098322,457.0463,157.9533,66.36618,38.30049
1098355,457.1658,157.7949,66.37168,38.27254
1098388,457.2886,157.9963,66.37733,38.30808
1098422,457.5062,158.1465,66.38734,38.33458
1098454,457.9412,158.0782,66.40731,38.32252
1098485,458.3964,158.2497,66.42818,38.35275
1098518,458.8584,158.6334,66.44933,38.42028
1098552,459.1819,159.3562,66.46412,38.54718
1098582,459.3178,160.3839,66.47033,38.7268
1098616,459.3194,161.5232,66.4704,38.9249
1098648,459.3105,163.1935,66.46999,39.21333
1098680,459.2154,164.9701,66.46564,39.51754
1098713,459.2544,166.4008,66.46743,39.76059
1098742,459.1193,168.045,66.46126,40.03782
1098776,458.896,169.3655,66.45105,40.25884
1098808,458.7592,170.8161,66.44479,40.5
1098839,458.6509,172.3215,66.43983,40.74844
1098874,458.772,173.7041,66.44538,40.97499
1098907,458.8778,175.1765,66.45022,41.21455
1098938,459.0471,176.8778,66.45796,41.48919
1098972,459.2701,178.1678,66.46815,41.6959
1099002,459.5016,179.8169,66.47871,41.95822
1099034,459.862,181.3158,66.49515,42.1948
1099068,460.1973,182.6907,66.51041,42.41025
1099101,460.5084,184.6017,66.52457,42.70728
1099134,460.9458,185.8045,66.54443,42.89278
1099159,461.5722,187.7419,66.57284,43.18924
1099192,462.1617,189.3871,66.5995,43.43877
1099225,462.854,191.0036,66.63074,43.68194
1099258,463.3385,192.8343,66.65257,43.95499
1099290,463.9117,193.7902,66.67832,44.09656
1099330,464.3633,194.6833,66.69859,44.22823
1099358,464.5838,196.1158,66.70847,44.43819
1099391,465.1864,197.3506,66.73543,44.61797
1099423,465.9035,198.9633,66.76744,44.85112
1099456,466.9057,200.4575,66.81203,45.06546
1099492,467.8557,202.178,66.85415,45.31028
1099523,468.6391,203.5433,66.88878,45.50307
1099552,469.7402,204.7265,66.93728,45.66908
1099583,471.1759,206.0424,67.00024,45.85257
1099617,472.4751,206.8749,67.05693,45.96803
1099648,473.8736,207.6499,67.11765,46.07508
1099686,474.8445,208.4716,67.15963,46.18813
1099714,475.634,209.3545,67.19366,46.30909
1099744,476.3049,210.0779,67.22251,46.40779
1099778,476.6802,210.7362,67.23861,46.49731
1099812,476.8231,211.4914,67.24474,46.59964
1099842,477.0164,212.2118,67.25302,46.6969
1099878,477.0531,212.6483,67.25459,46.75566
1099907,477.1535,213.3818,67.25889,46.8541
1099938,477.0936,213.9359,67.25632,46.92823
1099972,477.1188,214.4409,67.25741,46.99562
1100007,476.9528,215.1161,67.2503,47.08546
1100038,476.7757,215.8757,67.24271,47.18616
1100070,475.9958,216.09,67.20923,47.2145
1100102,475.1374,216.7463,67.17227,47.3011
1100143,474.5749,217.3845,67.14799,47.38506
1100166,473.7476,217.7724,67.11219,47.43595
1100200,472.8988,218.5821,67.07536,47.54186
1100236,471.5686,218.9554,67.0174,47.59055
1100264,470.03,219.4812,66.95001,47.65898
1100296,467.4816,220.8365,66.83759,47.83452
1100331,464.2723,221.8538,66.6945,47.96552
1100363,461.0528,223.1181,66.54929,48.12739
1100393,457.1917,224.7615,66.37287,48.33629
1100429,452.8738,226.1748,66.17259,48.51457
1100461,448.6077,227.6712,65.97155,48.702
1100489,443.9864,228.8233,65.75014,48.84534
1100524,438.8648,230.0628,65.50024,48.99865
1100558,434.3848,230.3539,65.27766,49.03453
1100587,430.1579,230.3127,65.06414,49.02945
1100619,426.1392,230.6135,64.85792,49.06647
1100653,422.1259,230.3021,64.64877,49.02815
1100683,417.911,230.7111,64.42558,49.07848
1100718,413.8403,230.478,64.20654,49.0498
1100749,409.8804,230.0048,63.99007,48.9915
1100782,406.4906,229.8032,63.80206,48.96662
1100813,402.8922,229.2385,63.59971,48.89681
1100849,399.1052,228.4158,63.38359,48.79473
1100882,395.4641,227.7831,63.17268,48.71595
1100915,392.387,227.1645,62.99202,48.63869
1100944,389.2733,226.5809,62.8069,48.56558
1100977,386.5785,226.1192,62.64479,48.50758
1101007,384.255,225.6457,62.50358,48.44797
1101043,382.426,225.1765,62.39146,48.38876
1101076,380.876,224.4907,62.2958,48.30198
1101104,379.7074,224.0642,62.22326,48.24786
1101139,378.8848,223.8526,62.172,48.22097
1101170,378.4489,224.2599,62.14476,48.27271
1101205,378.3171,224.3293,62.13652,48.28151
1101235,378.4663,224.4862,62.14585,48.30141
1101269,378.7643,224.8262,62.16447,48.34447
1101301,379.035,224.9869,62.18137,48.3648
1101338,379.3713,225.2095,62.20234,48.39294
1101368,379.6647,225.5879,62.22061,48.44069
1101400,379.7027,225.9968,62.22297,48.49219
1101434,379.6507,226.1622,62.21974,48.51299
1101467,379.43,226.1008,62.206,48.50528
1101502,379.0184,226.2124,62.18034,48.51931
1101533,378.2635,225.8701,62.13316,48.47625
1101565,377.0858,225.4673,62.05927,48.42549
1101599,375.6662,224.928,61.96972,48.35736
1101631,373.5837,224.232,61.83739,48.26916
1101664,371.1814,223.6669,61.68332,48.19734
1101695,368.0331,223.1876,61.47904,48.13625
1101730,364.141,222.6234,61.22275,48.06417
1101767,359.8084,221.8153,60.93245,47.96057
1101805,355.7403,221.0099,60.65496,47.85689
1101829,351.273,220.2416,60.34465,47.75761
1101861,346.7341,219.3811,60.02319,47.64596
1101893,340.6926,218.2123,59.58538,47.49354
1101951,335.5202,217.3689,59.20129,47.38301
1101968,331.643,217.0278,58.90759,47.33817
1101994,328.0385,216.743,58.62998,47.30067
1102017,324.7932,216.3253,58.37622,47.24558
1102040,321.1738,215.4675,58.08882,47.13209
1102072,317.5456,214.7135,57.79601,47.03193
1102105,314.2888,214.1117,57.52906,46.95171
1102135,311.6236,213.7012,57.30765,46.89685
1102169,308.9801,213.597,57.08539,46.88292
1102201,306.3199,213.0509,56.85899,46.80974
1102237,304.0156,212.3021,56.66064,46.70906
1102269,301.4376,211.5484,56.43623,46.60735
1102303,298.7035,210.8104,56.1953,46.50739
1102332,295.9012,209.8617,55.94519,46.37833
1102367,292.5505,209.1252,55.64182,46.27772
1102395,289.0526,208.5679,55.32003,46.20135
1102428,285.1148,207.7154,54.95142,46.08411
1102459,281.1231,206.9019,54.57073,45.97176
1102492,277.0637,206.1849,54.17615,45.87236
1102525,273.1057,205.188,53.78404,45.73357
1102557,269.5794,204.52,53.42841,45.64019
1102591,266.647,204.09,53.12807,45.57991
1102625,264.4938,203.7101,52.90484,45.52654
1102655,262.6893,203.4548,52.71596,45.49062
1102688,260.9518,203.3781,52.53254,45.47982
1102721,259.2104,203.3835,52.34715,45.48058
1102758,257.2668,202.9948,52.1384,45.42577
1102787,255.2119,202.7675,51.91553,45.39368
1102819,252.8556,202.3837,51.65722,45.33942
1102852,249.9114,201.6833,51.33029,45.2401
1102884,246.7082,201.2813,50.96921,45.18294
1102916,242.9583,200.4854,50.53925,45.06945
1102948,239.1522,199.6281,50.09468,44.94667
1102982,235.339,198.9022,49.64086,44.84232
1103015,231.4936,198.1206,49.17447,44.72953
1103047,227.9509,197.667,48.73687,44.66386
1103080,224.6326,197.0895,48.31997,44.58005
1103117,222.1165,197.0138,47.99923,44.56905
1103147,219.9748,197.037,47.72305,44.57242
1103175,218.5698,196.1202,47.54026,44.43883
1103213,217.1592,195.6076,47.35545,44.36388
1103243,215.4203,195.6624,47.12582,44.37189
1103278,212.9269,195.7001,46.79309,44.37741
1103307,210.1207,195.8759,46.41363,44.40313
1103341,206.9293,196.111,45.97555,44.43749
1103375,203.897,196.6739,45.55281,44.51959
1103405,201.1218,197.174,45.16023,44.59233
1103438,198.7363,197.632,44.81841,44.65879
1103473,196.801,198.7178,44.5381,44.81575
1103508,195.5446,199.5038,44.35466,44.92883
1103548,195.1772,200.4148,44.30079,45.05935
1103572,195.5108,201.4804,44.3497,45.21127
1103593,196.3199,202.432,44.46798,45.34624
1103619,197.4947,203.5517,44.63889,45.50425
1103650,198.5342,204.2018,44.78927,45.59558
1103683,198.7939,204.2682,44.82673,45.60489
1103716,198.6109,204.5418,44.80033,45.64323
1103751,198.4292,204.8404,44.77411,45.68501
1103779,197.9373,205.4542,44.70301,45.7707
1103820,197.7256,205.7891,44.67236,45.81734
1103845,197.5351,205.6827,44.64475,45.80253
1103878,197.6351,205.6861,44.65924,45.80301
1103911,197.9207,205.9581,44.70061,45.84085
1103948,198.4218,206.0208,44.77304,45.84956
1103983,198.9999,206.1553,44.85639,45.86826
1104010,199.4256,206.4142,44.91761,45.90419
1104040,199.7303,206.7459,44.96133,45.95017
1104076,199.8086,206.782,44.97257,45.95517
1104105,199.7451,206.6969,44.96346,45.94337
1104142,199.6263,206.4271,44.94641,45.90598
1104173,199.4018,206.141,44.91419,45.86627
1104205,199.4613,206.0838,44.92274,45.85832
1104237,199.5585,205.9369,44.93669,45.8379
1104272,199.8079,205.5728,44.97248,45.78722
1104301,199.9446,205.4047,44.99207,45.7638
1104334,199.9438,205.0802,44.99195,45.71851
1104366,199.9003,205.0729,44.98571,45.71751
1104398,199.6977,204.9969,44.95666,45.70689
1104433,199.69,204.8658,44.95557,45.68857
1104463,199.795,204.959,44.97063,45.70159
1104499,200.0708,205.4569,45.01015,45.77108
1104527,200.2358,206.1962,45.03375,45.87393
1104560,200.4446,206.9939,45.06361,45.98449
1104596,200.6075,208.4651,45.08689,46.18724
1104624,200.8536,209.9089,45.12201,46.38477
1104657,201.0491,211.1427,45.14987,46.55244
1104691,201.0974,211.8219,45.15676,46.6443
1104721,201.144,212.7838,45.16339,46.77387
1104758,201.4726,213.4447,45.21017,46.86253
1104789,201.8069,214.2193,45.25765,46.96608
1104819,202.2631,215.3181,45.32233,47.11227
1104849,202.8739,215.8636,45.40871,47.18455
1104883,203.4721,216.7913,45.49305,47.30703
1104916,204.5096,218.2083,45.63873,47.49302
1104948,205.7253,219.7454,45.80846,47.69328
1104981,207.2776,221.6236,46.02371,47.93592
1105015,209.11,223.5965,46.27564,48.18837
1105046,210.9177,225.4601,46.52194,48.42456
1105078,212.5559,228.6245,46.74323,48.82066
1105110,213.9227,232.3856,46.92647,49.28344
1105143,215.1771,237.9111,47.09356,49.9479
1105179,217.3805,242.2655,47.38453,50.45895
1105209,219.5001,244.0323,47.66143,50.6632
1105242,220.5034,245.6861,47.79149,50.85279
1105274,221.6604,246.3847,47.94066,50.93243
1105304,222.8405,246.5929,48.09194,50.9561
1105339,223.3642,246.4227,48.15878,50.93675
1105372,223.6456,246.7062,48.19463,50.96898
1105402,224.0384,247.6647,48.24458,51.07762
