Time (ms), X, Y, Event
56017.26,327.9509,246.8252,0
56083.92,327.7427,246.7752,0
56098.55,327.6508,246.7436,0
56111.32,327.6338,246.7137,0
56125.23,327.6652,246.7703,0
56137.9,327.6723,246.8342,0
56147.79,327.6322,246.8321,0
56158.29,327.6151,246.792,0
56169.02,327.709,246.7274,0
56184.95,327.7257,246.6499,0
56200.96,327.6967,246.666,0
56216.39,327.7451,246.6607,0
56234.13,327.6868,246.6405,0
56251.51,327.6262,246.7408,0
56272.71,327.5377,246.7806,0
56285.76,327.3896,246.8054,0
56302.34,327.2778,246.8722,0
56318.48,327.1979,246.8618,0
56336.24,327.1094,246.9888,0
56353.47,327.1091,247.1983,0
56368.34,327.1772,247.4985,0
56383.71,327.3375,247.8739,0
56400.36,327.5474,248.116,0
56418.27,327.6786,248.2762,0
56436.33,327.9442,248.3625,0
56454.05,328.1753,248.5526,0
56470.51,328.3965,248.9153,0
56485.43,328.6358,249.4199,0
56502.34,328.9013,250.0239,0
56518.76,329.1891,250.5437,0
56535.41,329.1441,250.8576,0
56552.82,329.0606,250.7002,0
56570.48,328.8512,250.289,0
56586.29,328.4573,249.7614,0
56602.81,327.6352,248.9466,0
56619.42,326.8065,248.4493,0
56637.19,325.968,248.3757,0
56652.12,324.9351,248.8133,0
56669.77,324.0304,249.4797,0
56686.71,323.1374,250.5835,0
56703.68,321.7799,254.2354,0
56734.14,321.314,256.4913,0
56747.98,320.9928,258.576,0
56759.33,320.6764,259.9732,0
56769.88,320.1548,261.196,0
56786.03,320.0217,262.3777,0
56804.5,320.2704,263.3741,0
56821.18,320.57,264.0163,0
56838.71,320.5085,264.8322,0
56856.63,320.7565,264.6355,0
56870.39,321.05,264.6946,0
56887.7,321.6415,264.8151,0
56904.3,322.3712,264.7841,0
56921.55,322.6185,264.7919,0
56940.07,323.3417,264.7217,0
56955.06,323.7413,264.8784,0
56971.03,323.9466,265.0941,0
56986.96,324.1316,265.6798,0
57004.24,324.1799,266.2988,0
57022.29,324.2806,266.9452,0
57038.97,324.3295,267.7687,0
57056.07,324.4715,267.9087,0
57072.91,324.1562,267.1656,0
57091.3,323.9491,266.3331,0
57106.35,323.3062,264.9073,0
57122.04,323.3096,265.1996,0
57139.28,323.5768,266.2184,0
57155.24,323.517,267.1653,0
57173.91,323.3299,267.9144,0
57190.56,323.1767,268.6781,0
57206.1,323.1997,269.8195,0
57223.8,323.4962,270.7702,0
57240.56,323.1975,270.1045,0
57257.27,322.735,269.3663,0
57274.36,322.4692,268.9427,0
57289.38,322.2405,268.6807,0
57306.73,321.9343,268.0315,0
57323.26,321.4964,267.4957,0
57339.65,321.4303,268.1327,0
57357.37,321.4153,268.9388,0
57374.44,321.1671,268.9191,0
57392.27,321.1679,269.1934,0
57408.7,321.1774,270.3479,0
57424.75,321.2149,270.7878,0
57444.05,320.6957,270.5967,0
57461.3,320.536,270.0649,0
57477.2,320.5076,269.6718,0
57493.48,320.6361,269.4771,0
57510.68,320.6896,269.9418,0
57527.24,320.6929,270.4661,0
57543.64,320.7503,269.588,0
57560.29,321.5215,267.4561,0
57577.18,322.1344,266.9523,0
57593.44,322.1609,266.8571,0
57611.96,322.0582,267.7723,0
57629.13,321.7418,268.3037,0
57645.18,320.9808,268.6421,0
57660.76,320.0582,269.9334,0
57676.55,319.6321,270.9908,0
57694.96,319.3616,271.5596,0
57710.71,319.3618,271.3318,0
57728.56,319.5208,270.7993,0
57745.64,319.9436,269.9413,0
57761.56,319.4278,268.8724,0
57779.82,319.4424,268.5523,0
57795.35,319.2997,268.4717,0
57811,319.2577,269.0764,0
57828.4,319.3705,269.7222,0
57846.22,319.2942,269.9649,0
57861.73,319.3959,270.1714,0
57878.91,318.9441,270.2845,0
57896.2,318.8393,269.7753,0
57912.82,318.6466,269.1734,0
57928.66,318.5125,268.2426,0
57946.58,318.4278,267.3691,0
57963.47,318.4388,266.5929,0
57981.33,318.3303,265.4879,0
58002.2,318.1976,265.0486,0
58015.94,317.981,264.574,0
58029.3,317.2773,263.9215,0
58045.24,317.0264,263.5688,0
58060.63,317.4033,263.339,0
58078.07,317.9371,263.1333,0
58095.77,319.1436,263.6691,0
58112.81,320.0323,264.2751,0
58129.19,320.5919,265.0979,0
58145.74,320.7044,266.0395,0
58162.53,321.3526,266.991,0
58178.92,322.3935,268.3487,0
58195.89,322.9305,269.8923,0
58212.61,323.3753,272.049,0
58228.51,326.8047,273.1328,0
58245.04,326.3315,274.5422,0
58262.24,323.0489,277.9674,0
58279.12,325.3107,280.3927,0
58298.64,327.2347,281.8634,0
58314.25,327.7086,279.193,0
58330.71,325.4778,276.2217,0
58356.84,325.1775,274.9313,0
58371.69,324.8733,273.8986,0
58381.47,323.0975,273.723,0
58396.89,321.9819,274.7369,0
58418.53,321.3578,274.656,0
58430.8,321.3282,273.8171,0
58448.86,321.5521,272.6689,0
58465.37,322.0062,271.243,0
58481.04,323.0654,270.6747,0
58499.11,323.1148,269.8149,0
58515.56,321.0006,267.9568,0
58532.04,318.4052,265.8139,0
58553.05,317.2407,264.7235,0
58565.71,316.5532,264.7592,0
58584.39,316.7882,265.6292,0
58600.14,318.2356,266.3804,0
58616.98,319.2381,267.0218,0
58634.04,320.2737,266.1374,0
58650.61,320.8134,266.0289,0
58665.35,317.8873,271.6897,0
58683.46,320.0413,268.542,0
58698.52,323.4916,264.3924,0
58715.33,322.3633,266.5116,0
58732,320.5099,270.2681,0
58749.49,319.9896,273.2477,0
58766.35,320.228,272.7393,0
58781.82,320.2151,271.2932,0
58817.71,321.5762,269.9995,0
58837.61,322.146,268.7805,0
58851.3,322.7654,267.1662,0
58866.38,322.9471,264.8693,0
58879.06,322.2294,261.7137,0
58889.3,320.6781,260.9842,0
58900.93,319.2449,261.1831,0
58917.68,319.2185,260.7294,0
58931.93,320.1733,260.9391,0
58950.02,321.1465,262.0573,0
58966.87,321.5017,262.3392,0
58983.89,321.7599,261.6438,0
59001.96,321.617,261.4618,0
59019.91,321.7318,262.0123,0
59033.95,322.3533,263.5847,0
59051.68,322.8124,264.8052,0
59068.99,322.6525,266.5447,0
59084.64,322.4895,268.4164,0
59101.71,322.7971,270.0827,0
59118.39,323.0915,271.2787,0
59135.5,323.061,272.6075,0
59157.96,323.32,273.7941,0
59173.25,323.534,273.6211,0
59187.67,323.7997,272.4233,0
59203.86,323.8596,271.6273,0
59220.95,323.93,270.9204,0
59239.32,323.633,270.2204,0
59256.84,323.2983,269.951,0
59272.01,322.9337,269.7259,0
59287.64,322.3277,268.9848,0
59303.17,321.9678,268.5025,0
59319.62,321.8298,267.8544,0
59337.13,321.6009,267.338,0
59356.09,321.2198,266.8626,0
59371.32,321.2934,266.1725,0
59388.28,321.5926,265.3096,0
59403.43,322.0291,263.4752,0
59420.88,321.7071,262.326,0
59440.32,321.3282,261.5654,0
59456.4,321.5105,261.0306,0
59471.8,321.4998,260.6815,0
59487.82,321.0734,260.6983,0
59503.99,320.6522,260.7573,0
59520.59,320.2804,260.8821,0
59539.56,319.9473,260.9403,0
59557.94,319.8351,260.8551,0
59573.48,319.7866,260.6332,0
59589.29,319.7351,260.2642,0
59606.82,319.7903,259.7973,0
59623.63,319.8404,259.2594,0
59639.89,319.8236,258.7097,0
59657.45,319.6635,258.2752,0
59676.49,319.3843,257.9269,0
59692.83,319.0404,257.5043,0
59705.31,318.6066,256.9781,0
59723.45,318.3979,256.5558,0
59738.99,318.4334,256.2575,0
59756.27,318.3672,256.2235,0
59773.8,318.4681,256.2753,0
59791.1,318.7437,256.2172,0
59806.56,319.2143,255.9222,0
59823.25,319.6953,255.6691,0
59840.26,320.1301,255.3899,0
59857.94,320.1951,255.201,0
59872.88,320.5825,254.9141,0
59890.71,321.0774,254.7328,0
59906.76,321.2304,254.6424,0
59922.82,321.2474,254.543,0
59940.22,321.4042,254.578,0
59957.62,321.5751,254.6836,0
59972.97,321.5004,255.0691,0
59993.7,321.3181,255.6191,0
60008.59,321.0674,255.9908,0
60024.17,321.1261,256.2391,0
60042.24,321.2081,256.5555,0
60059.15,321.1844,256.8238,0
60076.7,320.7884,257.0856,0
60092.8,320.2513,257.2798,0
60110.55,320.194,257.2972,0
60125.88,319.8555,257.3095,0
60142.2,319.1402,257.2776,0
60159.59,318.7886,257.4193,0
60176.41,318.5763,257.9148,0
60192.97,318.2542,258.4409,0
60209.62,317.8267,259.1143,0
60226.28,317.8532,259.6516,0
60245.73,318.0228,260.0506,0
60259.21,318.199,260.386,0
60276.48,318.3331,260.7004,0
60293.72,318.5565,260.8452,0
60311.93,318.7299,260.953,0
60329.2,318.8583,261.0447,0
60344.32,318.9883,260.9438,0
60360.33,318.824,260.3481,0
60376.65,318.899,259.7482,0
60393.47,318.5591,259.4775,0
60410.72,317.8628,259.261,0
60426.38,317.5989,259.0973,0
60442.39,317.312,259.1299,0
60459.52,316.8928,259.0882,0
60478.02,316.3405,258.8878,0
60493.23,315.6905,258.7736,0
60510.72,315.3519,258.7514,0
60526.46,315.5221,258.9771,0
60546.22,315.6087,259.2899,0
60560.62,315.4911,259.069,0
60577.34,315.796,258.9804,0
60593.64,316.4608,258.8914,0
60610.05,317.0929,258.7665,0
60628.03,317.4802,258.856,0
60643.49,317.8093,259.0767,0
60660.86,317.9509,259.2922,0
60679.28,318.0716,259.3528,0
60695.46,318.0529,259.3456,0
60711.71,318.1113,259.3488,0
60729.03,318.2072,259.351,0
60745.97,318.1177,259.4469,0
60762.56,318.3519,259.3337,0
60778.39,318.6832,259.2329,0
60795.74,319.0901,259.0771,0
60830.17,319.7436,259.0505,0
60844.75,319.7747,259.2616,0
60855.34,320.0492,259.2231,0
60864.41,320.4702,259.2932,0
60879.41,320.5259,259.2615,0
60896.65,320.386,259.2703,0
60913.16,320.5019,259.6379,0
60931.07,320.8962,259.9168,0
60947.39,320.8052,260.1626,0
60964.88,320.6914,260.2859,0
60980.79,320.9341,260.3878,0
60998.72,321.3188,260.5215,0
61014.59,321.4245,260.7123,0
61033.28,321.3803,260.961,0
61049.93,321.739,261.1987,0
61066.16,321.8711,261.2881,0
61082.01,322.019,261.1422,0
61099.57,322.4914,260.9374,0
61116.03,322.9471,260.7104,0
61132.07,323.3781,260.6512,0
61149.01,323.5541,260.7812,0
61165.85,323.5028,260.996,0
61182.62,323.4391,261.0988,0
61199.45,323.7024,261.2357,0
61214.68,323.9219,261.2781,0
61232.7,324.0092,261.3085,0
61249.59,324.0463,261.214,0
61266.68,324.1653,261.2227,0
61283.31,324.1789,261.2785,0
61299.48,324.0821,261.286,0
61316.51,323.9594,261.283,0
61333.71,323.6568,261.299,0
61351.36,324.0072,261.2488,0
61367.57,324.1915,261.1603,0
61382.72,323.7432,261.0761,0
61400.07,323.6702,260.9098,0
61416.68,323.746,260.7721,0
61433.99,323.6667,260.6495,0
61451.09,323.3578,260.2466,0
61467.48,322.5161,259.8947,0
61483.87,321.668,259.3093,0
61501.19,321.461,258.761,0
61516.5,320.6628,258.4603,0
61534.53,320.2557,258.3065,0
61551.64,319.4225,258.109,0
61568.48,318.447,257.9704,0
61584.61,318.3884,258.1266,0
61601.15,318.0584,258.4084,0
61618.83,317.7924,258.4696,0
61634.59,317.6449,258.7109,0
61652.75,317.6942,258.8582,0
61669.07,318.0298,258.8385,0
61683.93,318.6123,258.7359,0
61703.15,319.0557,258.2747,0
61719.2,319.5136,258.1764,0
61735.77,319.7361,258.1313,0
61752.73,319.5456,258.1702,0
61768.91,319.6188,258.1667,0
61786.58,319.6311,258.1956,0
61807.95,319.3673,258.1853,0
61820.3,319.425,257.9828,0
61836.67,319.5967,258.0345,0
61853.7,319.9253,258.1452,0
61869.18,320.0709,258.5216,0
61886.2,320.2008,258.9955,0
61903.07,320.4225,259.3374,0
61919.7,320.1842,259.6336,0
61935.63,320.1645,259.8336,0
61954.89,320.0399,259.8406,0
61969.76,319.6469,259.9662,0
61986.32,319.5824,260.0134,0
62003.77,319.5529,260.252,0
62019.46,319.4393,260.3174,0
62036.33,319.2692,260.3141,0
62052.57,319.217,260.3038,0
62071.12,319.1771,260.2389,0
62088.14,319.1708,260.1306,0
62103.92,319.152,260.1314,0
62121.68,319.2253,260.1104,0
62138.64,319.2788,260.1303,0
62154.69,319.4178,260.1106,0
62172.61,319.6946,260.1805,0
62188.18,319.9589,260.323,0
62205.58,320.1396,260.3129,0
62222.74,320.6548,260.2395,0
62238.04,321.1782,260.3558,0
62253.7,321.4462,260.5794,0
62271.96,321.6314,260.7271,0
62288,321.948,260.839,0
62307.35,322.3624,261.0763,0
62320.23,322.3978,261.2074,0
62339.94,322.4882,261.4305,0
62355.12,322.4332,261.6713,0
62372.43,322.3567,261.8848,0
62388.11,322.265,262.203,0
62404.97,322.0314,262.4592,0
62421.35,321.6418,262.6236,0
62438.84,321.5193,262.6064,0
62454.38,321.6276,262.5046,0
62471.33,321.5716,261.8216,0
62489.44,321.3191,261.2125,0
62508.39,321.5717,260.7191,0
62524.68,321.7961,260.3035,0
62541.92,321.8525,259.8784,0
62560.21,322.1073,259.6642,0
62575.84,322.287,259.5903,0
62593.96,322.2729,259.6421,0
62610,322.1426,259.8142,0
62627.5,321.9286,259.9663,0
62643.2,321.6588,259.922,0
62658.39,321.7332,259.8215,0
62675.95,321.5343,259.5797,0
62693.66,321.378,259.3154,0
62712.88,321.3647,259.1983,0
62725.88,321.2247,259.0088,0
62744.13,320.8537,258.7174,0
62759.9,320.664,258.4139,0
62776.33,320.6842,258.1844,0
62795.91,320.5424,258.1331,0
62810.48,320.3916,258.1393,0
62829.21,320.4689,258.2086,0
62842.71,320.5523,258.3648,0
62860.02,320.7875,258.6051,0
62876.36,320.931,258.752,0
62894.66,321.2415,258.733,0
62911.34,321.3564,258.555,0
62925.74,321.5113,258.3681,0
62943.3,321.7984,258.2497,0
62961.41,321.8825,258.0872,0
62978.69,321.7357,258.0504,0
62994.19,321.3835,257.9197,0
63013.51,321.3257,257.7345,0
63027.11,321.3254,257.4883,0
63043.82,321.2576,257.396,0
63061.98,321.2067,257.3407,0
63077.27,321.3894,257.3483,0
63092.44,321.4865,257.461,0
63111.16,321.7327,257.563,0
63127.96,321.8842,257.7177,0
63144.87,321.7952,257.6784,0
63161.43,321.749,257.679,0
63178.48,321.8336,257.6194,0
63195.65,321.8795,257.5409,0
63213.52,321.6685,257.384,0
63230.58,321.55,257.2928,0
63246.13,321.3412,257.1961,0
63261.79,321.3792,257.035,0
63279.11,321.426,256.8974,0
63295.57,321.3798,256.7873,0
63314.21,321.3165,256.6559,0
63330.2,321.3817,256.5751,0
63345.73,321.4846,256.4961,0
63362.33,321.4962,256.3977,0
63378.59,321.5648,256.3636,0
63396,321.6235,256.4062,0
63411.77,321.6254,256.4706,0
63430.45,321.6534,256.4446,0
63449.06,321.6528,256.3708,0
63461.77,321.7253,256.2583,0
63479.08,321.6218,256.1874,0
63496.15,321.4738,256.0716,0
63512.39,321.6026,255.9271,0
63530.05,321.9424,255.8849,0
63545.4,321.3519,255.6714,0
63562.7,318.7547,255.4017,0
63579.57,323.6746,254.8253,0
63596.43,324.3454,254.9213,0
63613.53,322.5826,254.8438,0
63629.63,321.0808,254.7846,0
63646.93,320.8505,254.4142,0
63664.21,321.1326,254.1094,0
63682.39,320.8139,254.1653,0
63698.54,321.3355,254.6667,0
63716.03,323.5257,255.1664,0
63732.84,319.3964,254.1776,0
63748.74,321.4173,254.9354,0
63770.22,322.7188,255.1132,0
63780.89,322.2971,255.2836,0
63799.92,321.5658,255.4546,0
63815.05,322.0303,255.8502,0
63835.56,322.0811,255.8248,0
63849.9,321.9029,255.7428,0
63866.34,321.8557,255.6469,0
63882.59,321.906,255.5958,0
63899.07,321.8717,255.5752,0
63916.08,321.8717,255.5752,1
63916.08,321.836,255.7,0
63937.61,321.839,255.8143,0
63949.25,321.8911,255.9496,0
63965.34,321.8391,256.0694,0
63982.39,321.8459,256.1431,0
64001.66,321.9937,256.1864,0
64017.62,321.9832,256.1878,0
64033.83,321.919,256.1421,0
64049.96,321.9787,256.1801,0
64066.31,322.176,256.26,0
64084.09,322.3525,256.3624,0
64100.68,322.445,256.4966,0
64119.8,322.4419,256.7596,0
64135.73,322.5034,257.2177,0
64152.16,322.4293,257.7036,0
64169.5,322.4077,258.2162,0
64186.79,322.547,258.7725,0
64202.66,322.7746,259.4124,0
64219.9,322.9526,260.0281,0
64236.56,323.1297,260.5992,0
64253.24,323.3665,261.2472,0
64270.71,323.4798,261.7852,0
64287.25,323.3957,262.2812,0
64303.17,323.3508,262.633,0
64319.27,323.386,263.022,0
64336.17,323.4,263.3703,0
64351.12,323.3178,263.8275,0
64372.19,323.3293,264.3366,0
64391.47,323.3828,264.8007,0
64403.65,323.4441,265.2777,0
64420.72,323.5647,265.8197,0
64437.77,323.6378,266.3353,0
64453.14,323.7084,266.9551,0
64470.49,323.7284,267.6839,0
64487.46,323.7339,268.3177,0
64506.53,323.7222,268.7946,0
64521.56,323.5327,269.2588,0
64538.5,323.4354,269.908,0
64555.07,323.3611,270.7543,0
64571.82,323.1081,272.0523,0
64590.31,322.9727,273.1599,0
64605.2,322.865,273.8905,0
64621.22,322.7407,274.5779,0
64639.76,322.632,275.3147,0
64656.2,322.4815,276.3321,0
64671.45,322.386,277.5927,0
64687.18,322.4986,279.2546,0
64703.4,322.6461,280.675,0
64720.39,322.7461,282.1322,0
64738.55,322.9866,283.8384,0
64754.52,323.2657,285.63,0
64771.95,323.4194,287.1651,0
64787.34,323.5726,288.2617,0
64805.31,323.826,288.9131,0
64820.3,324.0452,289.5672,0
64840.41,324.2879,290.4806,0
64855.02,324.537,291.4657,0
64871.03,324.8566,292.7463,0
64889.44,325.2266,294.0811,0
64904.65,325.6364,295.7188,0
64922.8,326.3565,297.3727,0
64940.49,326.5156,298.9933,0
64956.03,326.4412,300.9356,0
64973.1,326.5295,302.8872,0
64990.68,326.6555,304.7968,0
65006.71,326.2418,306.7784,0
65024.39,325.9337,308.1871,0
65040.39,325.8652,309.4488,0
65057.8,325.8126,310.4752,0
65072.03,325.6322,311.6783,0
65089.45,325.4157,312.8221,0
65107.46,325.1407,314.1018,0
65124.14,324.9146,316.1386,0
65141.84,324.8903,317.8725,0
65157.49,325.0923,319.1458,0
65174.74,325.3063,320.025,0
65201.12,325.6155,321.5979,0
65216.4,325.6307,322.6996,0
65225.11,325.3863,323.9311,0
65242.24,325.1853,325.3287,0
65260.74,324.7677,326.9356,0
65276.13,324.225,328.7722,0
65293.48,324.1718,330.118,0
65307.74,324.1479,331.1885,0
65326.58,324.1954,332.4174,0
65343.1,324.1606,333.8339,0
65359.65,324.2083,335.2524,0
65376.04,324.3591,336.1104,0
65394.02,324.2762,336.5265,0
65409.2,324.3697,337.3584,0
65425.61,324.5249,338.3743,0
65443.08,324.9002,339.1979,0
65458.76,325.4023,340.1764,0
65478.14,325.5291,341.1682,0
65493.69,325.7454,342.3165,0
65509.28,326.5349,343.6652,0
65526.73,327.6304,345.5261,0
65557.35,329.0081,348.2612,0
65572.07,329.7569,350.1974,0
65592.3,330.5056,353.2029,0
65611.41,331.0463,355.5555,0
65626.88,331.345,357.5969,0
65639.74,331.611,359.5869,0
65652.48,331.8027,361.6957,0
65661.2,331.9099,364.0785,0
65677.87,332.3735,366.953,0
65694.5,332.6905,369.5188,0
65711.42,332.7975,371.7505,0
65726.48,332.9647,374.6696,0
65744.38,333.5761,377.346,0
65760.63,334.0471,380.036,0
65778.83,333.9669,382.3765,0
65796.03,334.1745,384.6546,0
65813.07,334.3976,386.3925,0
65829.52,334.4135,388.3907,0
65846.19,334.3261,390.4456,0
65863.92,333.9493,392.4175,0
65879.13,333.4476,394.347,0
65893.84,333.4258,396.8484,0
65911.99,333.596,399.7938,0
65929.6,333.4352,402.3341,0
65954.04,333.0309,405.2185,0
65965.73,332.7448,407.8465,0
65981.8,332.5616,410.5602,0
66003.32,332.2203,413.6111,0
66015.73,331.6993,417.0801,0
66032.15,330.7592,421.1523,0
66051.86,330.0073,424.0572,0
66066.24,328.9253,426.6549,0
66083.02,327.9572,429.0735,0
66101.33,326.6626,432.0772,0
66118.25,325.3142,434.7365,0
66131.82,323.6408,438.1756,0
66152.24,322.2342,441.1039,0
66166.71,320.8381,443.7401,0
66183.1,319.6606,446.2576,0
66203.25,319.2891,447.7112,0
66217.37,318.6184,449.5782,0
66231.9,318.3102,451.9582,0
66250.47,318.275,453.9912,0
66267.34,318.2117,455.4709,0
66283.58,318.1344,456.6209,0
66301.2,318.2742,457.6792,0
66318.55,318.5461,458.5489,0
66333.56,318.9227,459.3814,0
66358.58,319.5643,459.2419,0
66375.19,320.1958,458.6681,0
66385.41,320.8055,458.1732,0
66399.73,321.4102,457.9404,0
66416.46,321.8923,457.7812,0
66433.92,322.2242,457.6107,0
66450.63,322.5583,457.3182,0
66468.21,322.8499,456.9428,0
66485.74,322.8114,456.3043,0
66502.3,322.6326,455.7637,0
66517.98,322.3231,455.1206,0
66533.51,322.1236,454.2829,0
66550.09,322.2674,452.9696,0
66568.41,322.1669,451.9018,0
66586.27,321.8563,450.7542,0
66602.59,321.7751,449.2831,0
66620.59,321.7921,448.2152,0
66635.81,321.9412,447.1835,0
66651.92,321.7395,446.2213,0
66672.55,321.4836,445.7979,0
66685.92,321.4769,445.4724,0
66703.8,321.5348,445.4384,0
66722.83,321.4687,445.3835,0
66736.98,321.2202,445.2126,0
66753.78,321.2863,445.1294,0
66770.83,321.5584,445.0954,0
66788.29,321.9846,445.3383,0
66803.1,322.1265,445.7816,0
66818.94,321.7695,446.0961,0
66836.33,321.6079,445.9913,0
66852.59,321.6622,445.9269,0
66869.51,321.7343,445.6679,0
66886.45,321.8235,445.4795,0
66902.54,321.5666,445.1786,0
66919.74,321.3093,445.0027,0
66936.66,321.358,444.9438,0
66954.11,321.5154,445.1253,0
66970.68,321.6103,445.1771,0
66987.48,321.6329,445.3399,0
67004.12,321.6125,445.3831,0
67020.2,321.6536,445.4023,0
67037.81,321.5928,445.5315,0
67053.82,321.4853,445.5291,0
67071.34,321.2666,445.5895,0
67087.51,321.0628,445.5053,0
67104.05,321.0365,445.1565,0
67120.88,321.1839,444.969,0
67138.04,321.2195,444.6497,0
67154.08,321.2659,444.5487,0
67173.55,321.3134,444.6368,0
67190.92,321.4789,445.0305,0
67207.88,321.6073,445.4535,0
67221.76,321.6547,445.7656,0
67238.43,321.548,445.9911,0
67256.78,321.6475,446.3888,0
67274.3,321.5293,446.9391,0
67290.59,321.3734,447.4087,0
67306.52,321.3372,447.7024,0
67323.09,321.2886,447.9188,0
67340.89,321.2118,448.106,0
67357.74,321.1242,448.1713,0
67376.15,321.0765,448.0942,0
67392.88,321.0334,448.0615,0
67408.11,321.0806,448.0786,0
67425.09,321.2445,448.1809,0
67442.39,321.4227,448.3498,0
67459.16,321.6333,448.4424,0
67474.68,321.9297,448.5995,0
67493.78,322.1215,448.6927,0
67511.15,322.2524,448.8242,0
67526.43,322.2649,449.0482,0
67543.29,322.2509,449.4626,0
67561.33,322.2993,449.6109,0
67577.73,322.2512,449.9058,0
67594.01,322.1131,449.8838,0
67612.58,321.8719,449.5813,0
67628.8,321.6779,449.2951,0
67644.34,321.5792,449.1404,0
67662.51,321.5556,448.9938,0
67679.59,321.504,449.0129,0
