Time Stamp(ms),Intersection,,Angle,
,x,y,x,y
1045388,316.3568,245.0935,57.69903,50.78503
1045406,316.2382,244.4007,57.68932,50.70556
1045422,316.145,243.6905,57.68169,50.62383
1045439,316.072,243.1666,57.67571,50.56334
1045455,315.9262,242.6684,57.66377,50.50568
1045472,315.696,242.0787,57.64489,50.43725
1045489,315.2509,241.2591,57.60833,50.3418
1045505,314.8499,240.4057,57.57533,50.24201
1045521,314.4255,239.5658,57.54035,50.1434
1045539,314.1066,239.094,57.51401,50.08782
1045554,313.7935,238.7304,57.48812,50.0449
1045571,313.4491,238.5042,57.45959,50.01816
1045590,313.0739,238.2913,57.42847,49.99297
1045606,312.6009,238.0882,57.38915,49.96891
1045622,312.1504,237.8776,57.35163,49.94393
1045642,311.7095,237.6521,57.31484,49.91717
1045657,311.2524,237.3721,57.2766,49.88388
1045671,310.8499,236.8776,57.24288,49.825
1045690,310.4176,236.2182,57.20658,49.74625
1045704,309.9469,235.4571,57.16698,49.65504
1045722,309.4808,234.9315,57.12769,49.59185
1045740,309.0584,234.4388,57.09201,49.53247
1045757,308.7197,234.0249,57.06335,49.48247
1045773,308.3678,233.6338,57.03352,49.43513
1045791,308.108,233.4525,57.01147,49.41316
1045808,307.8304,233.26,56.98788,49.3898
1045824,307.5309,232.9765,56.9624,49.35537
1045839,307.2084,232.7212,56.93491,49.32433
1045857,306.8044,232.4691,56.90043,49.29362
1045875,306.3294,232.5254,56.85981,49.30048
1045891,305.8365,232.7526,56.81755,49.32814
1045906,305.239,233.2462,56.7662,49.38813
1045923,304.5404,233.8733,56.70601,49.46413
1045939,303.8711,234.2935,56.64813,49.51493
1045956,303.0648,234.7427,56.57819,49.56911
1045977,302.4676,235.121,56.52621,49.61465
1045994,301.7039,235.564,56.45953,49.66787
1046008,300.8857,236.0017,56.38784,49.72034
1046023,299.7336,236.2683,56.28643,49.75225
1046042,298.6594,236.4294,56.1914,49.7715
1046057,297.0397,236.7557,56.0472,49.81046
1046073,295.0577,237.2538,55.86926,49.86982
1046090,292.4109,238.0222,55.62908,49.96109
1046107,288.2234,239.2491,55.24298,50.10611
1046127,284.089,240.2897,54.85427,50.22842
1046140,279.6631,241.1081,54.42969,50.32418
1046156,275.0648,241.5401,53.97905,50.37457
1046172,270.8575,241.8925,53.55799,50.4156
1046190,266.7831,242.0852,53.1421,50.438
1046206,260.8109,242.3252,52.5176,50.46588
1046233,257.202,242.6091,52.1314,50.49881
1046243,253.7357,242.7068,51.75405,50.51012
1046258,250.3653,242.7216,51.38099,50.51185
1046272,246.5132,242.5976,50.94704,50.49747
1046293,242.9047,242.3365,50.53305,50.46719
1046306,239.0159,241.9487,50.07861,50.42213
1046325,235.7463,241.6766,49.68974,50.39046
1046341,232.6262,241.6307,49.31276,50.38512
1046357,229.6383,241.636,48.94626,50.38575
1046374,226.3125,241.4673,48.53188,50.36608
1046391,223.1026,241.3318,48.12541,50.35028
1046408,219.7526,241.2641,47.69422,50.34238
1046423,216.4996,241.2095,47.26858,50.33602
1046440,213.7788,241.0469,46.90724,50.31702
1046455,210.4874,240.7794,46.46352,50.28576
1046473,207.5807,240.4668,46.06554,50.24917
1046492,204.8951,240.179,45.69266,50.21544
1046507,202.2492,239.92,45.32037,50.18504
1046527,200.0237,239.6715,45.0034,50.15583
1046540,198.3571,239.3164,44.7637,50.11403
1046570,196.4524,238.2166,44.48731,49.98412
1046580,195.697,237.8984,44.37696,49.94641
1046590,195.0829,237.1231,44.28695,49.85425
1046607,194.6814,236.5263,44.22795,49.78308
1046623,194.6401,236.2499,44.22187,49.75004
1046643,195.2852,235.964,44.31663,49.71582
1046661,195.5585,235.6453,44.35669,49.67762
1046673,196.2164,235.0905,44.45288,49.61098
1046689,197.1378,234.2951,44.58707,49.51512
1046706,197.8668,233.6698,44.69281,49.4395
1046722,198.7734,233.0401,44.82377,49.3631
1046739,199.55,232.4531,44.93547,49.29168
1046756,200.3923,231.9641,45.05613,49.23201
1046774,201.2453,231.5706,45.17782,49.1839
1046790,201.9637,231.3405,45.2799,49.15571
1046809,202.7109,231.3351,45.38568,49.15506
1046825,203.4617,231.4511,45.49158,49.16926
1046843,204.156,231.7321,45.58916,49.20365
1046859,204.8152,231.9518,45.68149,49.2305
1046872,205.5602,232.4357,45.78547,49.28955
1046891,206.2429,232.7971,45.88042,49.33356
1046909,207.11,233.226,46.00054,49.38568
1046924,207.8467,233.3948,46.10219,49.40616
1046940,208.7499,233.2661,46.22631,49.39055
1046957,209.7964,233.0997,46.36942,49.37034
1046977,210.5531,232.9293,46.47244,49.34963
1046996,211.2235,232.7652,46.56339,49.32968
1047009,211.9625,232.627,46.66327,49.31286
1047025,212.529,232.4629,46.7396,49.29286
1047040,213.0585,232.177,46.81076,49.258
1047057,213.6314,231.9271,46.88753,49.22749
1047073,214.1572,231.74,46.95779,49.20462
1047092,214.567,231.613,47.01243,49.18908
1047108,214.98,231.6676,47.06738,49.19576
1047124,215.4062,231.8272,47.12396,49.21527
1047140,215.7812,232.0028,47.17365,49.23673
1047158,216.1577,232.201,47.22345,49.26093
1047177,216.4931,232.2783,47.26773,49.27036
1047192,216.7757,232.3818,47.30497,49.28298
1047210,217.0112,232.4389,47.33598,49.28994
1047223,217.2664,232.6077,47.36953,49.31051
1047241,217.5968,232.8494,47.41292,49.33991
1047257,217.9391,233.1219,47.45779,49.37304
1047273,218.2408,233.4768,47.49727,49.4161
1047291,218.5086,233.8334,47.53227,49.4593
1047308,218.8067,234.0244,47.57117,49.48241
1047324,219.1283,234.2296,47.61307,49.50721
1047340,219.451,234.5246,47.65505,49.54282
1047356,219.8947,235.0977,47.71265,49.61185
1047377,220.2426,235.7507,47.75774,49.69026
1047392,220.6979,236.5105,47.81662,49.7812
1047409,221.0655,237.2769,47.86407,49.87255
1047424,221.4008,238.2436,47.90726,49.98732
1047442,221.6209,239.1017,47.93559,50.08873
1047459,221.6685,239.7914,47.9417,50.16993
1047476,221.5398,240.58,47.92515,50.26242
1047497,221.5497,241.318,47.92642,50.34868
1047514,221.4918,241.9356,47.91898,50.42061
1047528,221.3237,242.3888,47.89733,50.47326
1047544,221.1898,242.8536,47.88009,50.52713
1047559,221.0793,243.2655,47.86584,50.57477
1047575,220.8833,243.9618,47.84055,50.65509
1047593,220.7287,244.7075,47.8206,50.74079
1047610,220.553,245.6449,47.79789,50.84809
1047627,220.3533,246.8979,47.77206,50.99075
1047646,220.2045,247.9785,47.75281,51.11308
1047659,220.0716,248.9291,47.7356,51.22015
1047674,219.9215,249.8576,47.71614,51.32426
1047693,219.7682,250.9605,47.69624,51.44732
1047709,219.6811,251.9978,47.68494,51.56246
1047726,219.7834,252.8696,47.69821,51.65877
1047744,219.8694,253.4832,47.70938,51.72631
1047760,219.986,254.1183,47.72449,51.79602
1047776,220.0373,254.3141,47.73115,51.81746
1047792,219.8839,254.1135,47.71125,51.79549
1047809,219.7455,253.8234,47.6933,51.76368
1047824,219.5751,253.3731,47.67118,51.71421
1047843,219.3714,252.9194,47.6447,51.66426
1047859,219.2541,253.0834,47.62944,51.68232
1047875,219.0739,253.5659,47.60598,51.7354
1047892,218.8604,253.8022,47.57816,51.76135
1047908,218.5996,253.9703,47.54415,51.77979
1047925,218.3817,254.2657,47.51569,51.81217
1047943,218.2646,254.4495,47.50037,51.83228
1047958,218.2914,254.3477,47.50389,51.82113
1047979,218.4454,254.2361,47.524,51.80892
1048000,218.8005,254.0948,47.57036,51.79345
1048018,219.1678,253.8454,47.61821,51.76609
1048036,219.8149,253.5824,47.7023,51.73722
1048054,220.5218,253.4766,47.79386,51.72559
1048073,221.1042,253.4459,47.86905,51.72222
1048092,221.7492,253.7931,47.95207,51.76035
1048110,222.4767,254.4008,48.04539,51.82695
1048128,223.1089,255.3269,48.12621,51.92806
1048147,223.7507,257.1138,48.20801,52.12188
1048167,224.3686,259.181,48.28649,52.34402
1048184,224.977,260.0804,48.36355,52.43996
1048202,225.5235,259.9061,48.43257,52.4214
1048224,225.8651,260.0802,48.47561,52.43995
1048241,226.2417,260.2739,48.52298,52.46056
1048258,226.2921,259.983,48.52932,52.4296
1048275,226.3235,259.6303,48.53326,52.39201
1048292,226.4,259.3645,48.54287,52.36362
1048311,226.5091,259.1439,48.55657,52.34004
1048332,226.8117,258.6635,48.59451,52.28862
1048353,227.3784,258.4385,48.66543,52.26449
1048370,228.4688,258.6204,48.80132,52.284
1048387,230.8562,258.5769,49.0963,52.27933
1048407,234.7578,258.5768,49.57093,52.27931
1048426,241.9559,259.4294,50.42297,52.37056
1048444,249.9405,261.0456,51.33354,52.54248
1048463,256.8335,262.9196,52.09159,52.74016
1048479,264.5069,265.1485,52.9062,52.97296
1048497,270.6491,266.4427,53.53692,53.10699
1048517,274.454,266.6096,53.91845,53.12421
1048536,277.2193,266.6292,54.19142,53.12623
1048554,278.7689,266.609,54.34282,53.12416
1048574,281.0891,266.9173,54.56746,53.15594
1048592,283.7907,267.0453,54.82593,53.16912
1048611,286.4351,267.076,55.07578,53.17228
1048628,289.1286,267.0228,55.32709,53.1668
1048652,291.9914,266.6705,55.59074,53.1305
1048667,294.9309,266.0147,55.85783,53.06276
1048687,297.6944,265.3716,56.10561,52.99613
1048706,300.0158,265.0414,56.31133,52.96183
1048725,302.5653,265.0354,56.53473,52.96121
1048743,304.5523,265.1361,56.70703,52.97167
1048765,306.7408,265.3978,56.89499,52.99884
1048778,308.6024,265.2815,57.05341,52.98677
1048796,310.5049,265.0114,57.21392,52.95871
1048818,312.3231,264.9265,57.36602,52.94989
1048836,314.0682,264.9696,57.51084,52.95436
1048854,315.8089,265.1459,57.65415,52.97269
1048875,317.2997,265.2209,57.776,52.98048
1048891,318.4209,265.3133,57.8671,52.99007
1048910,319.0204,265.3984,57.91561,52.99891
1048927,319.4911,265.7154,57.95362,53.03177
1048945,319.7664,265.986,57.97581,53.05979
1048967,320.0709,266.1571,58.00032,53.07748
1048982,320.1349,266.3303,58.00547,53.09538
1049005,320.2131,266.4727,58.01176,53.11009
1049022,320.4234,266.5847,58.02866,53.12165
1049042,320.7226,266.712,58.05267,53.13478
1049063,320.982,266.7366,58.07347,53.13731
1049078,321.1862,266.8615,58.08982,53.15018
1049093,321.2819,267.0297,58.09748,53.16751
1049112,321.2316,267.0946,58.09345,53.17419
1049132,321.1031,267.2957,58.08316,53.19488
1049151,320.8855,267.7502,58.06573,53.24157
1049171,320.6753,268.2401,58.04887,53.29176
1049190,320.5169,268.6635,58.03617,53.33506
1049209,320.3534,268.8701,58.02303,53.35616
1049227,320.1758,268.9513,58.00876,53.36444
1049244,319.9337,268.9941,57.98928,53.3688
1049263,319.812,268.765,57.97948,53.34542
1049283,319.7188,268.7933,57.97198,53.34831
1049300,319.6115,269.1887,57.96332,53.38864
1049320,319.5557,269.636,57.95883,53.43416
1049339,319.5182,269.9075,57.95581,53.46175
1049360,319.4807,270.4675,57.95278,53.51854
1049378,319.557,270.8959,57.95893,53.56188
1049396,319.6494,271.261,57.96638,53.59875
1049412,319.7361,271.8979,57.97337,53.66291
1049431,319.8448,272.4755,57.98212,53.72092
1049449,319.9583,273.1162,57.99126,53.78509
1049473,319.9898,274.0938,57.9938,53.88263
1049501,319.9808,277.822,57.99307,54.25043
1049531,319.759,281.3828,57.97522,54.59571
1049543,319.662,283.0893,57.9674,54.75914
1049555,319.5268,284.879,57.9565,54.92913
1049568,319.0383,287.2431,57.91706,55.15149
1049590,318.3008,289.4837,57.85735,55.35998
1049612,317.5606,292.0422,57.79723,55.59539
1049624,316.5002,294.2272,57.71075,55.79422
1049643,315.5024,295.3645,57.629,55.89692
1049660,314.2977,295.714,57.5298,55.92836
1049682,313.2782,296.5781,57.44542,56.0059
1049702,312.3214,297.4124,57.36588,56.08047
1049721,311.4716,297.4128,57.29494,56.08051
1049738,310.6735,297.5854,57.22808,56.0959
1049756,309.8725,298.1437,57.16072,56.1456
1049775,309.0569,298.5931,57.09188,56.18552
1049800,308.2756,298.4809,57.0257,56.17556
1049814,307.4615,297.9593,56.95649,56.1292
1049832,306.7158,297.6812,56.89286,56.10444
1049852,305.9832,297.8371,56.83014,56.11832
1049871,305.3928,298.6159,56.77944,56.18754
1049888,304.7926,298.4573,56.72776,56.17346
1049907,304.11,297.9234,56.66881,56.126
1049927,303.7618,298.0624,56.63867,56.13837
1049943,303.528,298.0055,56.6184,56.13331
1049961,303.394,296.8934,56.60678,56.03411
1049979,303.3511,295.8687,56.60305,55.94227
1049998,303.4507,295.5361,56.61169,55.91236
1050019,303.6977,295.8609,56.63311,55.94157
1050038,304.4804,297.4814,56.70082,56.08663
1050061,305.8798,299.492,56.82127,56.2651
1050079,306.8737,299.894,56.90635,56.30059
1050095,308.2112,299.713,57.02023,56.28462
1050114,309.3504,299.7126,57.11668,56.28459
1050131,310.5339,299.8767,57.21635,56.29906
1050152,311.7466,299.6444,57.31793,56.27856
1050169,313.0087,299.1214,57.42305,56.23233
1050192,314.0645,298.7026,57.51053,56.19523
1050210,315.1825,298.4513,57.60271,56.17293
1050229,316.4117,298.2764,57.70351,56.1574
1050245,317.6966,298.1976,57.80829,56.15039
1050264,319.0063,298.224,57.91448,56.15274
1050278,320.5062,298.156,58.03531,56.14669
1050298,322.3509,298.0875,58.1828,56.1406
1050317,324.1616,298.169,58.3264,56.14785
1050335,326.0242,298.6775,58.47291,56.193
1050356,327.844,299.058,58.61488,56.22672
1050375,329.5575,298.3544,58.74751,56.16433
1050393,331.0513,296.9879,58.86232,56.04256
1050410,332.1966,295.7246,58.94982,55.92932
1050429,332.7987,294.6595,58.99566,55.83332
1050443,333.3795,293.6173,59.03975,55.73892
1050458,333.9915,292.5942,59.08609,55.64581
1050473,334.482,291.867,59.12313,55.57936
1050487,334.9131,291.2628,59.15563,55.52397
1050502,335.3642,290.6989,59.18956,55.47214
1050515,335.8201,290.0503,59.22379,55.41235
1050529,336.2924,289.3716,59.25918,55.34961
1050544,336.7945,288.7837,59.29672,55.29508
1050559,337.3516,288.3503,59.33828,55.25479
1050575,338.0452,287.9371,59.38988,55.2163
1050592,338.6472,287.56,59.43454,55.18111
1050611,339.3529,287.1925,59.48673,55.14676
1050628,340.0083,286.8217,59.53507,55.11204
1050647,340.6313,286.5264,59.58088,55.08434
1050658,341.289,286.1838,59.62912,55.05217
1050677,342.0799,285.8655,59.68693,55.02222
1050693,342.8861,285.4538,59.74567,54.98342
1050708,343.7419,284.9831,59.80779,54.93898
1050724,345.0451,284.3052,59.90195,54.87479
1050741,346.5245,283.4873,60.00819,54.79707
1050757,348.1578,282.2544,60.12469,54.67936
1050775,350.0242,280.0907,60.25683,54.4711
1050791,351.4406,278.2519,60.35639,54.29243
1050808,352.434,276.5933,60.42586,54.12994
1050825,352.6067,275.1714,60.43791,53.98961
1050842,352.618,273.9333,60.4387,53.86664
1050858,352.3586,272.5967,60.4206,53.73308
1050874,351.7147,271.1607,60.37559,53.58863
1050893,351.2793,269.5403,60.34508,53.42443
1050911,350.4671,268.032,60.28802,53.27045
1050928,349.8251,266.7891,60.24278,53.14272
1050941,348.9829,265.5916,60.18324,53.01894
1050958,348.3191,264.4576,60.13615,52.90107
1050977,347.6292,263.2273,60.08708,52.77245
1050994,346.9277,262.2056,60.03703,52.66505
1051009,346.198,261.2544,59.9848,52.56459
1051026,345.5411,260.4608,59.93764,52.48043
1051042,344.9271,259.7441,59.89344,52.40414
1051059,344.3027,259.0296,59.84837,52.32782
1051078,343.5925,258.4727,59.79696,52.26815
1051093,342.9557,257.8676,59.75073,52.20314
1051109,342.2423,257.1865,59.69879,52.12973
1051125,341.2926,256.565,59.62938,52.06253
1051148,340.4687,256.0852,59.56894,52.01052
1051161,339.5228,255.4606,59.49927,51.94262
1051177,338.6119,254.6739,59.43192,51.85681
1051195,337.6844,253.8182,59.36306,51.76311
1051213,336.7215,252.8169,59.29127,51.65295
1051228,335.7491,251.9333,59.21847,51.55531
1051246,334.7093,251.0422,59.14027,51.45641
1051262,333.6516,250.1396,59.06036,51.35579
1051279,332.7518,249.2672,58.99209,51.25811
1051292,331.4456,247.9454,58.89249,51.10934
1051313,330.2208,246.8902,58.79858,50.98988
1051329,328.8974,246.0661,58.69654,50.89615
1051347,327.5327,245.362,58.59067,50.81576
1051362,326.2754,244.5839,58.49257,50.72661
1051379,325.007,243.9537,58.39304,50.65415
1051395,323.531,243.1895,58.27652,50.56599
1051414,322.1497,242.6004,58.16677,50.49779
1051430,320.6396,242.1064,58.04601,50.44046
1051444,318.8506,241.6321,57.90189,50.38528
1051461,316.8942,241.1948,57.74294,50.3343
1051477,314.3742,240.7868,57.53611,50.28662
1051494,312.2166,240.3614,57.35715,50.23682
1051511,309.7649,239.7913,57.15165,50.16991
1051529,307.4598,239.0419,56.95634,50.08167
1051547,305.054,238.3393,56.75028,49.99865
1051574,300.1632,236.8927,56.32431,49.8268
1051608,297.445,236.0579,56.08338,49.72707
1051620,296.0652,235.7081,55.95992,49.68516
1051633,294.7411,235.4091,55.84069,49.64927
1051643,293.6451,235.2533,55.74144,49.63055
1051655,292.3915,235.0382,55.62731,49.60469
1051666,291.174,234.8568,55.51582,49.58286
1051681,289.9839,234.7382,55.40622,49.56858
1051698,288.9231,234.6245,55.30803,49.55487
1051713,287.7842,234.5077,55.20204,49.54078
1051731,286.7273,234.4377,55.10319,49.53233
1051747,285.8723,234.416,55.02287,49.52971
1051765,285.0092,234.4743,54.94144,49.53675
1051783,284.2353,234.5343,54.86816,49.54399
1051800,283.4618,234.5866,54.79464,49.5503
1051816,282.6452,234.461,54.71674,49.53515
1051832,281.7531,234.2867,54.63129,49.5141
1051848,280.7742,233.995,54.53711,49.47886
1051863,279.5481,233.6943,54.41854,49.44246
1051879,278.2812,233.4322,54.2953,49.4107
1051896,276.5923,232.9905,54.12983,49.35707
1051919,275.3722,232.632,54.00948,49.31346
1051932,273.9932,232.2335,53.87261,49.2649
1051948,272.217,231.8054,53.69498,49.21262
1051965,270.5183,231.4016,53.52369,49.1632
1051980,268.4793,231.017,53.31623,49.11605
1051998,266.2346,230.6014,53.0855,49.06498
1052015,263.8645,229.9398,52.83915,48.98348
1052033,261.9491,228.9937,52.63801,48.86647
1052047,260.3022,227.9748,52.46357,48.73985
1052063,258.857,227.0014,52.30935,48.61828
1052082,257.7709,226.5444,52.19273,48.561
1052097,256.5244,226.3757,52.05813,48.53982
1052113,255.2654,226.4802,51.92136,48.55294
1052131,253.8974,227.1121,51.7718,48.63213
1052156,253.2009,227.4713,51.69527,48.67704
1052172,252.5474,227.8172,51.62323,48.72021
1052182,252.1101,228.136,51.57489,48.75992
1052198,251.8847,228.5024,51.54993,48.8055
1052214,251.9599,228.9151,51.55825,48.85673
1052232,252.168,229.2071,51.58129,48.89292
1052246,252.5398,229.4081,51.62239,48.91779
1052265,253.2936,229.5308,51.70546,48.93297
1052279,253.9654,229.7351,51.77925,48.95822
1052296,254.9278,229.9192,51.88454,48.98095
1052313,255.8467,230.0856,51.98461,49.00146
1052329,256.8612,230.1785,52.09458,49.01292
1052346,258.2638,230.3241,52.24573,49.03086
1052369,259.4419,230.4976,52.37189,49.05222
1052382,260.8395,230.7071,52.52063,49.07798
1052399,262.0602,230.9399,52.64972,49.10658
1052415,263.225,231.0914,52.7722,49.12518
1052429,264.3614,231.1506,52.89104,49.13243
1052448,265.5214,231.0152,53.01166,49.11582
1052466,266.455,230.9302,53.10826,49.10538
1052482,266.5364,230.7788,53.11666,49.08679
1052498,266.1795,230.7319,53.0798,49.08103
1052516,265.0329,230.7392,52.96095,49.08192
1052533,263.8246,230.6278,52.83498,49.06823
1052549,263.0114,230.2803,52.74979,49.02547
1052566,262.4991,229.8815,52.69595,48.97629
1052583,262.3763,229.6663,52.68303,48.94971
1052600,262.8452,229.6957,52.73235,48.95335
1052622,263.545,229.8641,52.80573,48.97414
1052635,264.3616,230.1366,52.89105,49.00776
1052649,265.5504,230.3029,53.01467,49.02825
1052666,266.5929,230.3254,53.1225,49.03101
1052683,268.1402,230.3034,53.28154,49.02831
1052702,269.5403,230.2681,53.42443,49.02397
1052717,270.866,230.2567,53.55886,49.02255
1052733,272.3181,230.2457,53.70512,49.0212
1052749,273.4306,230.2783,53.81651,49.02522
1052769,274.5161,230.2991,53.92461,49.02778
1052782,275.4263,230.2712,54.01484,49.02434
1052800,276.1228,230.1741,54.0836,49.01238
1052815,276.9313,229.9551,54.16315,48.98538
1052832,277.6259,229.5789,54.23125,48.93892
1052850,278.4752,229.05,54.31422,48.87346
1052865,279.1704,228.2588,54.38187,48.77521
1052883,279.7922,226.6329,54.4422,48.57211
1052900,280.4333,225.0577,54.50422,48.37376
1052917,281.1535,223.7489,54.57366,48.20777
1052935,281.8289,223.0073,54.63857,48.11324
1052948,282.4514,222.4973,54.6982,48.04803
1052964,282.9362,222.2582,54.74453,48.0174
1052981,283.2259,222.5864,54.77217,48.05944
1053001,283.0449,223.0536,54.75491,48.11916
1053018,282.6383,223.4304,54.71608,48.16722
1053032,281.9732,223.6975,54.65241,48.20123
1053049,281.1518,223.8351,54.57349,48.21873
1053065,279.7735,224.1807,54.44039,48.26266
1053089,279.0437,224.4223,54.36956,48.2933
1053099,278.2324,224.7323,54.29053,48.33259
1053114,277.2845,225.042,54.19781,48.37177
1053137,276.2985,225.339,54.10092,48.40928
1053152,275.456,225.3873,54.01777,48.41539
1053166,274.5237,225.4047,53.92537,48.41758
1053182,273.5554,225.4132,53.82896,48.41865
1053201,272.3693,225.4836,53.71027,48.42753
1053217,271.1599,225.5687,53.58854,48.43827
1053236,270.0085,225.7121,53.47201,48.45634
1053250,268.8982,225.8403,53.35902,48.4725
1053267,267.6278,226.0034,53.229,48.49302
