Time Stamp(ms),Intersection,,Angle,
,x,y,x,y
2917604,315.141,230.9364,57.59929,49.10615
2917623,315.1603,230.6493,57.60089,49.07087
2917641,315.2627,230.1434,57.60931,49.00859
2917661,315.3497,229.4212,57.61646,48.91942
2917680,315.4265,228.7859,57.62276,48.8407
2917700,315.3556,228.4135,57.61694,48.79445
2917717,315.2488,227.8035,57.60816,48.7185
2917741,314.9683,227.4019,57.58508,48.66836
2917756,314.6239,227.0196,57.55671,48.62056
2917774,314.1524,226.5117,57.5178,48.5569
2917794,313.6241,226.0451,57.4741,48.49827
2917814,312.9676,225.4648,57.41964,48.42517
2917834,312.1635,224.3757,57.35272,48.2874
2917854,311.571,223.5025,57.30326,48.1764
2917870,310.9798,222.567,57.25377,48.05695
2917890,310.4369,221.7742,57.20821,47.95529
2917909,309.9667,221.0847,57.16865,47.86654
2917929,309.4924,220.3474,57.12867,47.7713
2917949,309.1537,219.716,57.10006,47.68947
2917968,308.9243,219.163,57.08067,47.61758
2917987,308.7054,218.5848,57.06213,47.54222
2918004,308.3839,217.7758,57.03489,47.43639
2918028,308.1943,217.049,57.0188,47.34095
2918043,307.9432,216.2701,56.99747,47.23829
2918066,307.6358,215.5749,56.97132,47.14632
2918085,307.141,214.6941,56.92916,47.02935
2918103,306.6154,213.6974,56.88428,46.89635
2918122,305.879,212.3331,56.8212,46.71323
2918140,305.02,210.8651,56.74736,46.5148
2918158,303.7607,209.1355,56.63857,46.27913
2918181,302.4125,207.8322,56.52141,46.1002
2918203,300.7963,206.4759,56.37999,45.91275
2918221,298.9142,204.9064,56.21398,45.69424
2918238,297.0159,203.2972,56.04507,45.46842
2918256,294.5679,201.3573,55.82504,45.19376
2918275,292.1084,199.2214,55.60144,44.88825
2918294,289.6513,196.6655,55.37549,44.51837
2918315,287.4708,194.2784,55.17279,44.16861
2918334,285.256,191.8439,54.96476,43.80758
2918354,283.0729,189.1448,54.75758,43.40215
2918372,281.2005,185.6638,54.57818,42.87113
2918392,279.773,182.27,54.44035,42.34447
2918408,278.3439,178.1132,54.30141,41.68717
2918428,276.9569,173.8802,54.16566,41.00373
2918447,275.5672,169.698,54.02877,40.31427
2918467,274.0688,165.5782,53.88014,39.62106
2918489,272.2244,160.8028,53.69572,38.79977
2918508,270.8888,157.4406,53.56116,38.20993
2918525,269.4395,153.7432,53.41418,37.55005
2918541,267.7655,149.5718,53.24313,36.79131
2918561,265.9724,145.5934,53.05838,36.05338
2918581,263.9112,142.1805,52.84403,35.40912
2918602,261.2748,138.5571,52.56675,34.71365
2918622,258.4694,135.1855,52.2678,34.05585
2918638,255.8393,132.6488,51.98381,33.5541
2918655,253.2271,129.9408,51.69815,33.01195
2918672,250.2596,127.3852,51.36919,32.49411
2918694,247.6287,125.6309,51.07355,32.13517
2918714,244.6929,124.0059,50.73912,31.80013
2918735,242.3465,122.8737,50.46835,31.56525
2918755,240.1122,121.3747,50.2076,31.25245
2918774,238.3923,119.9049,50.00492,30.94373
2918790,236.7291,118.4892,49.80728,30.64445
2918808,235.5399,116.7896,49.66499,30.28271
2918835,234.4383,114.9502,49.53241,29.88818
2918853,233.754,113.3549,49.4497,29.54346
2918873,233.3595,111.846,49.40187,29.21523
2918890,233.2279,110.7706,49.38591,28.98001
2918908,233.0157,109.6073,49.36013,28.72435
2918927,232.7161,108.4003,49.3237,28.45775
2918945,232.2503,107.0053,49.26694,28.14796
2918966,231.5848,105.6931,49.18563,27.85491
2918984,230.8829,104.7562,49.09959,27.6447
2919003,230.0711,103.8818,48.99968,27.44777
2919022,229.134,103.4673,48.88387,27.35419
2919041,228.3028,103.3338,48.78069,27.32401
2919058,227.3488,103.2305,48.66174,27.30064
2919076,226.1722,103.4191,48.51425,27.34329
2919098,225.2086,103.6691,48.39283,27.39976
2919114,224.3737,103.8844,48.28714,27.44837
2919140,223.9927,103.9375,48.23877,27.46033
2919155,223.9342,103.8574,48.23134,27.44226
2919173,224.4229,104.2691,48.29338,27.53507
2919192,224.9863,105.7574,48.36472,27.8693
2919209,225.3592,107.9051,48.41185,28.348
2919232,225.5615,109.9928,48.43736,28.80922
2919251,225.606,112.3905,48.44297,29.33393
2919266,225.6054,114.5989,48.44289,29.81247
2919287,225.6603,116.1955,48.44981,30.15562
2919307,225.3884,117.2302,48.41553,30.37674
2919324,224.9909,118.1402,48.36531,30.5704
2919343,224.4414,118.89,48.29573,30.72936
2919359,223.7324,119.5696,48.20568,30.87301
2919377,222.9516,120.279,48.10612,31.0225
2919399,222.1812,120.6726,48.00753,31.10522
2919417,221.4876,121.0177,47.91844,31.17766
2919437,220.8218,121.2242,47.83262,31.22094
2919456,220.2214,121.7043,47.75499,31.32142
2919480,220.104,122.1063,47.73979,31.40538
2919496,220.0914,122.4307,47.73816,31.47303
2919512,220.0585,122.786,47.73389,31.54702
2919531,220.1456,123.1167,47.74517,31.61577
2919550,220.4776,123.4864,47.78815,31.6925
2919570,220.8486,123.8096,47.83608,31.7595
2919588,221.3992,124.3689,47.90705,31.87519
2919607,221.9957,124.7693,47.98373,31.95784
2919626,222.4989,125.1199,48.04823,32.03008
2919643,223.0581,125.3333,48.11973,32.07399
2919661,223.7211,125.4161,48.20423,32.09101
2919681,224.374,125.5521,48.28719,32.11898
2919701,224.8817,125.8015,48.35149,32.1702
2919720,225.3008,125.8172,48.40447,32.17343
2919739,225.7806,125.4298,48.46497,32.09385
2919758,226.2074,125.2348,48.51868,32.05372
2919776,226.4727,125.4877,48.55199,32.10574
2919793,226.69,125.8429,48.57926,32.1787
2919812,226.9329,126.2485,48.6097,32.26186
2919834,227.1591,126.8867,48.63801,32.3924
2919854,227.2971,127.9018,48.65527,32.59929
2919873,227.3975,129.1008,48.66782,32.84241
2919891,227.4428,130.2487,48.67348,33.07393
2919909,227.5755,131.1674,48.69004,33.25835
2919926,227.9187,132.1019,48.73285,33.44514
2919943,228.3701,132.7696,48.78905,33.57811
2919963,228.9445,133.1008,48.86038,33.64392
2919980,229.6951,133.2899,48.95327,33.68146
2920003,230.5016,133.4522,49.05271,33.71363
2920022,231.3699,133.5158,49.15932,33.72623
2920040,232.2396,133.5012,49.26564,33.72335
2920058,232.8803,133.5082,49.34367,33.72474
2920077,233.5069,133.453,49.41976,33.71379
2920094,234.0664,133.4271,49.48749,33.70867
2920115,234.5525,133.6202,49.54619,33.74692
2920134,235.0133,133.8906,49.6017,33.80045
2920154,235.3364,134.0826,49.64054,33.83842
2920172,235.7664,134.5729,49.69215,33.9352
2920192,236.2775,135.2702,49.75334,34.07249
2920211,236.7018,136.02,49.80403,34.21962
2920227,237.2051,136.9584,49.86401,34.40302
2920246,237.6013,138.3598,49.91113,34.67545
2920266,238.0789,139.7463,49.9678,34.94321
2920286,238.6264,140.8676,50.03261,35.15849
2920304,239.3951,142.0576,50.12331,35.38572
2920325,240.2625,143.551,50.22523,35.66909
2920342,241.0929,145.0919,50.3224,35.95937
2920361,241.7507,146.307,50.3991,36.18678
2920380,242.4809,147.681,50.48394,36.44234
2920396,243.4081,149.3089,50.59124,36.74297
2920416,244.5177,151.009,50.71901,37.05444
2920437,245.8708,153.0289,50.87387,37.42122
2920457,247.37,155.4391,51.04427,37.8542
2920481,249.2431,158.7563,51.25541,38.4419
2920510,251.2605,163.1662,51.48068,39.20864
2920526,252.4966,166.2601,51.61761,39.73676
2920537,253.7979,169.5187,51.76088,40.28439
2920549,255.8316,174.3554,51.98298,41.08116
2920572,258.1093,179.2465,52.22913,41.86772
2920589,260.2811,183.6695,52.46132,42.56274
2920608,262.4414,188.4051,52.68988,43.29008
2920627,264.6372,193.5147,52.91978,44.05582
2920648,266.821,198.5198,53.14601,44.7872
2920664,269.0808,203.9083,53.37765,45.55439
2920685,271.23,209.4255,53.59562,46.31879
2920705,273.1226,214.7382,53.78573,47.03521
2920725,274.6694,219.5471,53.93984,47.66753
2920743,276.2028,224.0824,54.09149,48.25016
2920761,277.8953,228.9887,54.2576,48.86586
2920780,279.6441,233.9572,54.42785,49.47428
2920800,281.3204,238.5331,54.58971,50.02157
2920818,283.4785,243.6633,54.79624,50.62069
2920840,285.8198,248.6368,55.01792,51.18728
2920860,288.2684,253.2639,55.24717,51.7022
2920877,290.8005,257.9237,55.48149,52.20918
2920897,293.2759,262.8056,55.7079,52.72818
2920914,295.7682,267.827,55.93324,53.24944
2920934,298.0817,271.7402,56.14008,53.64704
2920954,300.4202,275.236,56.34694,53.996
2920974,302.5317,278.3784,56.5318,54.30478
2920993,304.5167,281.6631,56.70395,54.62265
2921011,306.1873,283.8926,56.84763,54.83562
2921030,307.5315,285.4327,56.96244,54.98143
2921053,308.6107,286.7747,57.05411,55.10764
2921068,309.5349,288.466,57.13226,55.26555
2921091,310.2413,290.2663,57.19176,55.43229
2921110,310.7578,291.6721,57.23515,55.56151
2921130,311.1252,293.0046,57.26595,55.68322
2921150,311.3876,294.1976,57.28793,55.79153
2921167,311.5973,295.4941,57.30545,55.90858
2921188,311.6931,296.9904,57.31346,56.04279
2921207,311.5948,298.3039,57.30524,56.15984
2921227,311.4703,299.3481,57.29484,56.25238
2921246,311.2847,300.3908,57.27931,56.34435
2921264,311.1516,301.397,57.26817,56.43268
2921279,310.998,302.4263,57.25529,56.52261
2921298,310.7774,303.2835,57.23679,56.59718
2921319,310.5537,304.1727,57.21802,56.67423
2921339,310.3806,305.1232,57.20348,56.75624
2921359,310.3376,306.2064,57.19986,56.84927
2921378,310.427,307.1147,57.20737,56.92693
2921395,310.6075,307.8374,57.22253,56.98848
2921413,310.9217,308.5164,57.2489,57.04612
2921434,311.3332,309.1771,57.28337,57.10204
2921456,311.794,310.0048,57.32189,57.17186
2921475,312.3312,310.8707,57.3667,57.24462
2921497,312.7659,311.4643,57.40288,57.29434
2921512,313.1721,311.868,57.43662,57.32807
2921530,313.5971,312.3623,57.47186,57.36929
2921547,313.9805,312.7318,57.50359,57.40004
2921568,314.3433,312.996,57.53357,57.422
2921590,314.6064,313.2686,57.55526,57.44463
2921610,314.8,313.6023,57.57123,57.47229
2921628,314.869,313.8522,57.57691,57.49298
2921647,314.8699,314.0516,57.57698,57.50947
2921667,314.8362,314.0765,57.5742,57.51152
2921685,314.7542,314.236,57.56745,57.5247
2921709,314.6292,314.3214,57.55715,57.53176
2921730,314.5486,314.3301,57.5505,57.53247
2921745,314.4857,314.2672,57.54531,57.52728
2921761,314.3933,314.2347,57.53769,57.52459
2921779,314.4376,313.741,57.54134,57.48378
2921801,314.6927,312.7126,57.56238,57.39845
2921826,315.1391,311.5001,57.59914,57.29733
2921839,315.677,310.2003,57.64333,57.18831
2921859,316.6278,308.7553,57.72118,57.06636
2921879,317.3858,307.7604,57.783,56.98193
2921896,318.2522,306.7116,57.85341,56.8925
2921914,319.0818,305.4982,57.92057,56.7885
2921934,319.8529,304.1358,57.98277,56.67104
2921953,320.5154,302.6294,58.03604,56.54031
2921974,321.1607,301.0275,58.08778,56.40029
2921994,321.7709,299.1514,58.13656,56.23498
2922013,322.2186,297.6728,58.17226,56.10369
2922030,322.5647,295.8392,58.19982,55.93962
2922050,322.9196,293.8571,58.22803,55.76068
2922070,323.2402,291.9891,58.25348,55.59053
2922090,323.5777,290.2488,58.28022,55.43067
2922111,323.9029,288.6489,58.30595,55.28256
2922129,324.2209,287.153,58.33109,55.14307
2922147,324.6142,285.7365,58.36211,55.01007
2922166,325.0418,284.3515,58.39579,54.87918
2922184,325.5905,282.7398,58.4389,54.72578
2922204,326.2274,280.9763,58.48882,54.5566
2922225,326.8571,279.2602,58.53803,54.39059
2922244,327.5559,277.3531,58.59248,54.20454
2922264,328.3037,275.3173,58.65056,54.00405
2922281,329.1324,273.3835,58.7147,53.81181
2922299,330.0778,271.5361,58.78759,53.62648
2922319,331.1505,269.8368,58.86992,53.45457
2922341,332.3653,268.3226,58.96268,53.3002
2922361,333.692,267.1494,59.06342,53.17984
2922378,335.1015,266.2549,59.16981,53.0876
2922395,336.8747,265.9209,59.30271,53.05305
2922414,339.1086,266.1291,59.46868,53.07459
2922435,341.6278,266.7315,59.65391,53.13679
2922454,344.6035,266.8797,59.8701,53.15207
2922476,347.4767,266.6625,60.07621,53.12967
2922498,350.1183,266.3787,60.26346,53.10038
2922514,351.9532,266.2131,60.39228,53.08327
2922531,353.7292,266.0633,60.516,53.06778
2922551,355.0984,265.7484,60.61074,53.03519
2922572,356.4234,265.4213,60.70189,53.00128
2922590,357.4128,264.9734,60.76962,52.95477
2922609,358.26,264.3903,60.82739,52.89405
2922629,358.9598,263.4808,60.87496,52.79901
2922648,359.5562,262.6728,60.91538,52.71423
2922665,360.1081,261.7749,60.9527,52.61962
2922685,360.8255,261.0705,61.00108,52.54512
2922704,361.6159,260.4885,61.0542,52.48337
2922725,362.3795,259.9741,61.10536,52.42865
2922745,363.1399,259.4019,61.15614,52.36762
2922763,363.841,259.0235,61.20282,52.32716
2922782,364.6299,258.7003,61.25517,52.29256
2922801,365.4525,258.0326,61.30957,52.22088
2922821,366.4029,257.0727,61.3722,52.11744
2922841,367.1945,256.3954,61.42418,52.04416
2922860,367.8746,255.9415,61.46869,51.99491
2922879,368.556,255.9097,61.51316,51.99146
2922898,369.1504,255.6393,61.55185,51.96207
2922916,369.7812,255.2864,61.5928,51.92365
2922940,370.5988,254.7841,61.64572,51.86885
2922958,371.5143,254.6796,61.70477,51.85744
2922976,372.4274,254.8836,61.76343,51.87972
2922995,373.6291,255.3529,61.84029,51.93089
2923014,374.9393,255.6533,61.92366,51.96359
2923033,376.3327,255.7517,62.01183,51.97429
2923051,378.0983,255.68,62.12282,51.9665
2923070,380.5809,255.621,62.27752,51.96008
2923092,383.815,255.8534,62.47668,51.98534
2923112,387.7073,256.5708,62.71291,52.06316
2923133,391.9876,257.6731,62.96841,52.1822
2923149,396.7988,259.227,63.25035,52.34893
2923166,402.4178,261.1053,63.57281,52.54881
2923185,408.3299,262.5404,63.90438,52.7003
2923204,414.2959,263.5377,64.23122,52.80497
2923225,420.1131,264.2343,64.54264,52.87777
2923245,425.1978,264.758,64.80915,52.93235
2923264,430.0658,265.0096,65.05945,52.95852
2923283,433.8672,265.0819,65.25169,52.96604
2923300,437.3897,264.6953,65.42737,52.92583
2923319,440.3875,264.0052,65.57504,52.85386
2923338,443.3149,263.3601,65.71764,52.78637
2923358,445.9216,262.5484,65.84332,52.70114
2923385,449.0887,261.3425,65.99438,52.57392
2923400,451.2053,260.7917,66.09434,52.51556
2923414,453.3464,259.9669,66.19466,52.42789
2923433,455.4973,259.113,66.29466,52.33674
2923452,457.4692,258.1765,66.38564,52.23635
2923472,459.4533,256.9711,66.47651,52.10646
2923499,461.1143,256.0019,66.55208,52.00147
2923515,462.5071,254.6105,66.6151,51.84988
2923547,463.3886,253.1501,66.65482,51.68967
2923558,463.5841,252.4754,66.6636,51.61528
2923568,463.8021,250.9571,66.67341,51.44695
2923588,463.698,249.8199,66.66873,51.32005
2923607,462.9366,248.6346,66.63447,51.18703
2923628,462.2814,247.9445,66.60491,51.10924
2923648,461.7616,247.4992,66.58141,51.05889
2923665,461.2937,246.8325,66.56022,50.98333
2923684,460.6112,245.8924,66.52924,50.87634
2923704,459.7953,244.7393,66.4921,50.74444
2923737,459.0843,244.3316,66.45966,50.69762
2923755,458.0219,244.3192,66.41102,50.6962
2923769,457.2579,243.9641,66.37592,50.65535
2923782,455.7797,243.0259,66.30772,50.54707
2923800,454.5624,241.9851,66.2513,50.42636
2923833,453.4633,240.5757,66.20012,50.26193
2923848,452.8583,239.4261,66.17187,50.12696
2923862,452.1994,238.3382,66.14102,49.99851
2923881,451.3382,237.1201,66.10059,49.85389
2923898,450.3984,236.1413,66.05633,49.73705
2923915,449.5763,234.733,66.01747,49.56794
2923934,448.5717,233.3705,65.96984,49.40321
2923960,447.5659,232.5854,65.92197,49.30779
2923976,446.3082,231.6935,65.86185,49.19893
2923994,444.8148,230.8516,65.79011,49.09573
2924014,443.0036,229.9408,65.70256,48.98361
2924032,441.2125,229.4185,65.61539,48.91909
2924050,439.0827,229.024,65.51097,48.87024
2924070,437.0208,228.6857,65.40907,48.82827
2924089,434.8769,228.58,65.30228,48.81514
2924110,432.8322,228.3768,65.19962,48.78988
2924129,430.8965,228.2298,65.10169,48.7716
2924148,428.7021,228.0891,64.9898,48.75408
2924166,426.4676,227.9098,64.87489,48.73175
2924184,423.9645,227.6569,64.74499,48.7002
2924203,421.8183,227.4618,64.63261,48.67585
2924222,419.9655,227.1996,64.53483,48.64308
2924244,418.3403,226.9555,64.44849,48.61253
2924263,416.8271,226.6336,64.36759,48.57219
2924284,415.4706,226.3679,64.29469,48.53884
2924301,414.1466,225.848,64.22314,48.47346
2924319,412.4942,225.5887,64.13332,48.44079
2924339,410.4321,225.4891,64.02043,48.42823
2924359,408.1287,225.6652,63.89323,48.45044
2924379,405.9709,225.5887,63.77302,48.44078
2924398,403.3263,225.2525,63.62427,48.39837
2924417,400.5327,224.8285,63.46544,48.34476
2924436,396.8491,224.2656,63.25327,48.27343
2924456,393.2574,223.7575,63.04335,48.20886
2924474,389.1723,223.2986,62.80086,48.15041
2924497,385.0227,222.8275,62.55038,48.09027
2924519,380.7382,222.2358,62.28726,48.01453
2924533,376.1547,221.6376,62.00059,47.93773
2924553,372.4352,221.268,61.76393,47.89016
2924571,368.3063,220.8948,61.49688,47.84204
2924590,365.1538,220.496,61.28984,47.79053
2924612,362.6666,220.0369,61.12455,47.73109
2924630,361.1994,219.6654,61.02623,47.6829
2924651,360.8174,219.3884,61.00053,47.64691
2924668,359.9586,218.6584,60.9426,47.55182
2924685,358.2124,217.5029,60.82416,47.40059
2924704,355.9513,216.2268,60.66947,47.23258
2924726,353.7437,215.1585,60.517,47.09108
2924744,351.0675,213.7893,60.33023,46.90865
2924764,348.275,212.3642,60.13302,46.71743
2924785,345.0772,211.1884,59.90426,46.55864
2924803,342.3655,210.0839,59.70777,46.40861
2924822,339.3773,208.5729,59.48853,46.20203
2924840,336.4005,206.8006,59.26727,45.95774
2924862,333.6958,205.188,59.06371,45.73358
2924882,331.185,203.7157,58.87255,45.52732
2924901,329.0826,202.2782,58.71085,45.32447
2924918,326.8271,200.4713,58.53569,45.06743
2924937,324.7617,197.8181,58.37373,44.68575
2924957,323.1024,194.9358,58.24254,44.26534
2924977,321.6032,192.399,58.12317,43.89028
2924997,320.2891,189.9926,58.01786,43.53008
2925016,318.6917,187.4603,57.88903,43.14634
2925035,316.953,184.7366,57.74773,42.72813
2925055,315.3866,182.2508,57.61948,42.34147
2925073,313.7498,179.5272,57.4845,41.9123
2925095,312.457,176.6355,57.37718,41.45022
2925113,311.3604,173.2433,57.28564,40.89966
2925134,310.6031,168.5083,57.22217,40.11552
2925151,309.8873,162.2117,57.16196,39.04408
2925169,308.7071,155.3354,57.06227,37.83567
2925193,306.8044,146.6418,56.90043,36.2492
2925208,304.1147,138.4121,56.66922,34.68559
2925228,300.6988,132.207,56.37143,33.46609
2925247,297.1788,127.0119,56.05963,32.41798
2925267,294.6189,122.8079,55.82965,31.55157
2925285,293.5294,119.9811,55.73094,30.95978
2925301,293.0484,117.1842,55.6872,30.36694
2925320,292.5911,114.5015,55.64553,29.79145
2925347,291.893,112.2247,55.58174,29.29782
2925366,291.0919,110.088,55.50828,28.83015
2925382,290.1599,107.7609,55.42247,28.31599
2925400,289.176,105.5727,55.33147,27.82793
2925418,288.1575,103.7886,55.23684,27.42674
2925437,287.2393,102.5504,55.15115,27.14657
2925453,285.993,101.2212,55.03422,26.84425
2925474,284.8947,100.5068,54.93061,26.68109
2925495,283.7996,99.86009,54.82678,26.53298
2925519,282.7083,99.35455,54.72277,26.41693
2925539,282.1299,99.25272,54.66742,26.39353
2925553,281.3952,99.41655,54.59691,26.43118
2925570,280.7219,99.50005,54.53207,26.45036
2925588,279.956,99.59052,54.45806,26.47113
2925608,279.0195,99.69043,54.36721,26.49406
2925627,277.7955,99.86845,54.24784,26.53489
2925648,276.3471,99.90759,54.10571,26.54387
2925666,274.6776,99.58723,53.94065,26.47038
2925685,272.7711,98.99789,53.75055,26.33492
2925703,271.0532,98.44661,53.57778,26.20794
2925719,268.7715,97.79456,53.34609,26.05737
2925739,266.4434,97.03159,53.10707,25.88071
2925760,264.1657,96.23389,52.87062,25.69544
2925778,261.9038,95.43016,52.63323,25.50818
2925797,259.6237,94.37985,52.3913,25.26259
2925819,257.5444,93.40028,52.16833,25.03264
2925835,255.42,92.88239,51.9382,24.91072
2925853,253.198,92.63087,51.69494,24.85142
2925871,250.9108,92.41261,51.44179,24.79992
2925890,248.2287,92.28247,51.14131,24.76918
2925910,244.9435,92.52812,50.76786,24.82718
2925930,241.1903,92.93872,50.33378,24.92399
2925949,237.5844,93.20992,49.90911,24.98785
2925966,234.0734,93.2171,49.48833,24.98954
2925985,230.3685,93.06572,49.03632,24.95391
2926003,226.8374,92.82124,48.59774,24.89631
2926021,222.7799,92.52907,48.08419,24.8274
2926041,218.8966,92.27299,47.58289,24.76694
2926059,215.029,92.23499,47.07389,24.75797
2926083,210.5846,92.37305,46.47672,24.79057
2926103,206.6337,92.80745,45.93462,24.89306
2926117,202.4297,93.68866,45.34592,25.10043
2926138,198.1842,95.05029,44.73872,25.41947
2926154,194.0436,96.55574,44.13398,25.77026
2926173,189.6269,98.46979,43.47497,26.21328
2926193,185.16,100.507,42.79351,26.68112
2926212,180.6599,102.9532,42.09149,27.23788
2926231,175.9758,106.131,41.34386,27.95288
2926250,170.9561,110.2124,40.52318,28.8575
2926269,166.0753,114.8354,39.70544,29.86345
2926288,161.6762,119.3552,38.95141,30.82774
2926305,157.7958,123.7549,38.27271,31.74816
2926323,153.7875,127.9659,37.55803,32.61231
