Time Stamp(ms),Intersection,,Angle,
,x,y,x,y
858354.3,318.9909,240.2478,57.91323,50.22351
858370.3,318.9462,240.585,57.90961,50.26301
858388.2,318.8819,240.7759,57.90442,50.28535
858404.6,318.6715,241.0258,57.88739,50.31457
858423.6,318.4178,241.3006,57.86684,50.34664
858443.5,318.2308,241.3245,57.85168,50.34943
858456.4,317.9832,241.3472,57.83158,50.35207
858477.9,317.7041,241.2974,57.80891,50.34628
858493.6,317.3977,241.324,57.78397,50.34938
858509.3,317.1896,241.2221,57.76702,50.33749
858524.4,316.9727,241.1779,57.74934,50.33233
858538.8,316.8508,240.9749,57.7394,50.30862
858556.2,316.7565,240.7506,57.73169,50.2824
858573.9,316.7921,240.6585,57.7346,50.27162
858594.7,316.892,240.6017,57.74276,50.26497
858606.9,317.0503,240.6467,57.75566,50.27023
858622.9,317.1902,240.6908,57.76707,50.2754
858640.4,317.3385,240.7415,57.77916,50.28132
858657.2,317.491,240.8795,57.79157,50.29747
858673.8,317.609,240.8611,57.80117,50.29532
858690.9,317.6932,240.7735,57.80802,50.28507
858707.1,317.7633,240.7068,57.81372,50.27726
858724.2,317.7996,240.6151,57.81667,50.26654
858740.9,317.848,240.4363,57.8206,50.2456
858757.8,317.7623,240.3439,57.81363,50.23478
858774.4,317.6339,240.0539,57.8032,50.20076
858790.6,317.3438,239.9084,57.77958,50.18367
858807.1,316.8708,239.7957,57.74102,50.17043
858824.5,316.312,239.6425,57.69536,50.15242
858840.4,315.5454,239.4583,57.63253,50.13074
858857,314.7774,239.042,57.56936,50.08169
858873.9,313.7244,238.4164,57.4824,50.00777
858891.4,312.0461,237.6168,57.34293,49.91297
858913.2,310.5911,236.8577,57.22116,49.82262
858926.7,308.7621,236.2054,57.06694,49.74472
858941.7,306.5309,235.5343,56.87704,49.66431
858958.2,303.7669,234.7297,56.63911,49.56754
858973.6,299.8779,233.6075,56.29917,49.43194
858992.4,296.0524,232.6923,55.95876,49.3208
859007.9,290.4626,231.521,55.45039,49.17782
859024.9,285.2232,230.5925,54.96166,49.06389
859041.8,279.0659,229.7513,54.37171,48.96021
859057.5,272.7941,228.7274,53.75286,48.83344
859074.8,266.7412,227.881,53.13779,48.72816
859090.4,259.8703,227.0786,52.41759,48.62794
859106.7,252.8069,226.3913,51.65186,48.54178
859124.8,246.4329,225.9605,50.93791,48.48763
859140.8,239.8308,225.8983,50.17455,48.47979
859157.4,233.0581,225.9914,49.36529,48.49151
859173.4,225.9872,226.3154,48.49099,48.53225
859192.2,219.7885,226.3839,47.69888,48.54085
859210.6,212.8639,226.3726,46.78463,48.53944
859225.7,206.4427,226.4516,45.90814,48.54935
859239.3,199.9475,226.727,44.99248,48.58389
859255.8,193.1028,226.832,43.99481,48.59706
859273.2,186.4878,227.1417,42.99767,48.63584
859290.2,180.4367,227.3358,42.05626,48.66011
859306.7,174.3456,227.8168,41.07957,48.72015
859324.1,168.3281,228.4312,40.08533,48.79665
859340.6,163.4379,229.1057,39.25534,48.88036
859356.3,158.756,229.8018,38.44185,48.96645
859375.3,154.6885,230.267,37.71989,49.02383
859391.8,151.3207,230.662,37.11127,49.07244
859408.4,149.2402,231.0307,36.73033,49.11773
859426.1,147.6097,231.3577,36.42913,49.15783
859441.4,147.0365,231.782,36.32268,49.20975
859458.7,146.6299,232.19,36.24699,49.25959
859475.2,147.2231,232.5661,36.35736,49.30544
859493.6,147.8422,232.7987,36.47223,49.33376
859508.8,148.8121,232.9666,36.65148,49.35417
859524.9,150.3917,232.944,36.94165,49.35142
859540.7,151.729,232.9789,37.18558,49.35566
859559.2,153.1912,232.7641,37.45053,49.32954
859574.7,155.0972,232.3069,37.79308,49.27385
859593.1,156.6513,231.8939,38.07005,49.22343
859610.5,158.2462,231.0904,38.35213,49.12505
859627.9,159.9494,229.7831,38.65097,48.96414
859644.1,161.4229,228.5819,38.9075,48.81537
859659.9,162.5936,227.2679,39.11002,48.65162
859675.8,163.7879,225.7647,39.31541,48.46297
859693.5,164.9684,224.1192,39.51725,48.25484
859709.8,166.2146,222.0898,39.72905,47.9958
859726.8,167.6765,220.2355,39.97588,47.75682
859753.3,169.8172,217.9096,40.33411,47.45391
859764.7,171.6642,216.2242,40.64019,47.23223
859776.1,174.1914,214.2038,41.05446,46.964
859793.2,177.365,212.2708,41.56742,46.70484
859812.2,179.8991,211.0964,41.97124,46.54617
859827.7,182.1836,210.679,42.33096,46.48955
859844.6,184.0399,210.0125,42.62025,46.39888
859860.4,185.8258,209.2732,42.89606,46.29797
859877.7,187.0192,208.7726,43.079,46.22942
859893.1,188.2319,208.265,43.26377,46.15975
859910.3,189.475,208.0157,43.45204,46.12546
859926.6,190.8792,207.7652,43.6633,46.09097
859943.3,192.4582,207.4408,43.8991,46.04623
859960.3,194.3353,206.9522,44.17699,45.97872
859976.4,196.2046,206.5386,44.45116,45.92144
859993.3,198.2678,205.939,44.7508,45.8382
860010.8,200.9495,205.1062,45.13568,45.72216
860027.4,203.6812,204.3624,45.52247,45.6181
860044.5,206.6033,203.6901,45.93041,45.52373
860061.2,209.4346,203.193,46.32004,45.45374
860077.8,212.6792,202.7292,46.75981,45.38828
860094.8,216.7553,202.5539,47.30229,45.36349
860111.2,220.7522,202.5818,47.82363,45.36744
860128.3,225.1895,202.5313,48.3904,45.36029
860144.5,230.8349,202.7717,49.09369,45.39428
860160.6,236.5817,203.3484,49.78969,45.47562
860177.8,243.927,204.7546,50.65108,45.67302
860193.7,251.7107,206.4345,51.53064,45.90701
860211.4,259.2852,208.4358,52.35516,46.18321
860227.9,267.8193,210.3282,53.24865,46.44187
860244.3,275.7197,211.6677,54.04383,46.62347
860261,282.8433,212.9988,54.73567,46.80275
860277.3,289.9927,214.1892,55.40704,46.96206
860294.4,296.0412,214.9523,55.95776,47.06369
860312,301.5225,215.5295,56.44366,47.1403
860328.7,306.2025,215.8622,56.84893,47.18437
860346.5,310.8725,216.441,57.24477,47.26085
860363.6,315.6687,216.8673,57.64265,47.31705
860381.4,320.1125,216.8338,58.00367,47.31263
860397.8,323.8156,216.1401,58.29905,47.22112
860414.8,326.6752,215.4985,58.52383,47.1362
860430.9,329.2932,215.004,58.72712,47.07056
860447.4,332.4658,214.6463,58.97033,47.02299
860466.4,335.282,214.3801,59.18338,46.98753
860480.2,337.7847,213.8598,59.37052,46.91806
860497,339.6822,213.3061,59.51103,46.84396
860513.4,341.5294,212.9595,59.64672,46.79747
860530.6,343.1783,213.0559,59.76691,46.81041
860546.9,345.1501,213.1513,59.90951,46.8232
860563.9,347.1834,213.5111,60.05529,46.87142
860580.1,349.4811,213.7303,60.21849,46.90076
860597.1,352.2533,213.4045,60.41325,46.85714
860620.1,354.0344,212.8821,60.53716,46.78707
860630.4,355.9449,212.3166,60.66903,46.71101
860645.6,357.9287,211.6055,60.80483,46.61507
860661.9,360.0249,210.3885,60.94708,46.45006
860679.1,362.1356,208.8596,61.08904,46.24135
860698.3,364.0062,207.4812,61.21379,46.05181
860714.9,365.4219,206.3464,61.30756,45.89479
860730.8,366.7337,205.3735,61.39394,45.75945
860747.5,367.8784,204.6255,61.46893,45.65495
860764.2,368.5605,204.1372,61.51345,45.58652
860778.9,369.0832,203.414,61.54748,45.48487
860794.9,369.2893,202.8703,61.56088,45.40821
860813.6,369.4963,202.523,61.57432,45.35912
860831.4,369.5671,202.2248,61.57891,45.31691
860847.9,369.8307,201.6371,61.59601,45.23354
860865,370.1715,200.9884,61.61808,45.14123
860880.6,370.588,200.3314,61.64502,45.04742
860897.4,371.0054,199.7695,61.67197,44.96696
860918.1,371.6692,198.9999,61.71473,44.85638
860936.1,372.1255,198.6969,61.74405,44.81273
860947.9,372.7303,198.1684,61.78284,44.73644
860962.8,373.3767,197.5345,61.82418,44.64465
860979.3,374.0876,196.8796,61.86952,44.54953
860996.6,374.8046,196.1314,61.91511,44.44048
861014.4,375.4761,195.5578,61.95769,44.35658
861033.3,376.101,195.1996,61.9972,44.30408
861047.4,376.7627,194.918,62.03893,44.26273
861062.5,377.5493,194.629,62.08839,44.22024
861079.5,378.3362,194.3318,62.13771,44.17648
861095.6,379.3755,193.8299,62.2026,44.10243
861114.9,380.3966,193.3745,62.26609,44.03507
861131.8,381.4211,192.936,62.32951,43.97007
861147.7,382.8191,192.4577,62.41563,43.89902
861164.2,384.3329,192.1046,62.50833,43.84645
861180.2,386.1223,191.8537,62.61717,43.80905
861197.6,388.3804,191.6017,62.75338,43.77142
861214.4,390.4977,191.5294,62.87997,43.76063
861230.3,392.7233,191.6458,63.01188,43.778
861247.3,394.6946,191.7475,63.12772,43.79319
861264.3,396.4202,191.8181,63.22836,43.80372
861280.6,397.9416,191.8744,63.31652,43.81213
861297.6,399.0606,192.0899,63.38102,43.84426
861313.9,400.0648,192.4164,63.43866,43.89288
861331.7,400.8309,192.444,63.48248,43.89698
861347.4,401.5899,192.2864,63.52576,43.87353
861364.3,402.2592,192.0973,63.5638,43.84536
861380.9,402.9492,191.8721,63.60293,43.81178
861396.8,403.6625,191.7407,63.64327,43.79218
861414.1,404.2377,191.8955,63.67571,43.81528
861430.1,404.9691,192.0952,63.71685,43.84505
861450.6,405.5785,192.5776,63.75104,43.91685
861466.7,406.2932,192.975,63.79103,43.97587
861482.6,407.0923,193.1566,63.83562,44.0028
861499.8,407.9367,193.1768,63.88257,44.00579
861517.8,408.845,193.0844,63.93291,43.9921
861532.9,409.9172,193.0805,63.99209,43.99151
861550.8,410.914,193.2459,64.04689,44.01603
861567.8,411.9955,193.4487,64.10611,44.04606
861582.1,413.2899,193.9879,64.17664,44.12576
861599.7,414.5142,194.9315,64.24303,44.26471
861618.1,415.7978,196.4063,64.3123,44.48059
861633.9,417.014,197.5393,64.37762,44.64535
861650.2,418.3179,198.505,64.44729,44.78506
861666.3,419.849,199.5095,64.52866,44.92966
861692.5,421.3076,200.4086,64.60572,45.05847
861701.6,422.3362,201.0784,64.65981,45.15405
861714.7,423.6494,202.2982,64.72855,45.32731
861733.3,424.9966,203.6739,64.7987,45.52145
861752,426.2765,205.5715,64.86501,45.78705
861768.5,427.4491,207.6331,64.92548,46.07277
861785,428.5842,209.8574,64.98376,46.37775
861801.2,429.4184,212.6864,65.02643,46.76077
861817.3,430.379,215.5382,65.07539,47.14146
861834.8,430.998,218.1637,65.10685,47.48718
861851.9,431.5521,220.6113,65.13494,47.80543
861874.1,431.8926,222.8551,65.15218,48.0938
861889.3,432.0191,224.1162,65.15858,48.25447
861902.7,432.1957,225.5617,65.1675,48.43738
861918.6,432.3027,226.9475,65.1729,48.61153
861934.6,432.6207,227.9622,65.18896,48.73828
861950.6,433.0497,228.8379,65.21058,48.84715
861967.8,433.7782,229.382,65.24722,48.91457
861984.9,434.5158,230.0999,65.28422,49.00323
862002.3,435.2543,230.9547,65.32115,49.1084
862018.6,436.1947,231.7911,65.36803,49.21087
862036.8,437.0659,232.5644,65.41132,49.30523
862061.6,437.5565,232.7636,65.43563,49.32948
862077.3,437.8455,232.9156,65.44993,49.34797
862090,437.9575,233.0846,65.45547,49.36851
862101.4,437.9684,233.3707,65.456,49.40324
862117.5,437.6437,233.8374,65.43994,49.45979
862135.8,437.1003,234.2932,65.41302,49.51489
862152.9,436.4986,234.4318,65.38315,49.53163
862169.6,435.6704,234.6946,65.34192,49.56332
862186.1,434.4641,234.854,65.28162,49.58253
862202.3,433.2006,235.2865,65.21818,49.63454
862224.4,431.8035,235.6706,65.14767,49.68066
862236,429.9186,236.6569,65.05195,49.79867
862252.2,428.0401,237.3341,64.95586,49.87936
862269.1,426.1203,237.9917,64.85694,49.95746
862282.9,423.857,238.6194,64.73938,50.03178
862300.4,421.9058,239.0016,64.6372,50.07692
862317.3,419.9508,239.4633,64.53405,50.13133
862334.8,418.0379,239.8531,64.43236,50.17718
862351.8,416.2275,240.349,64.33542,50.23537
862369.6,414.5721,240.8325,64.24617,50.29197
862385.4,412.9323,241.4079,64.1572,50.35916
862403.1,411.3067,242.0522,64.06842,50.43416
862419.1,409.8572,242.5207,63.98879,50.48856
862437.7,408.1667,243.3057,63.89534,50.57941
862459.1,406.9514,243.9466,63.82777,50.65334
862472.7,405.7332,244.4257,63.75971,50.70844
862487.3,404.6283,244.6132,63.6977,50.72998
862501.3,403.4586,244.6765,63.63175,50.73724
862521.8,402.495,244.7938,63.57719,50.75069
862537,401.7635,244.8578,63.53564,50.75803
862551.8,401.1499,244.8578,63.50068,50.75803
862567.7,400.6445,244.6936,63.47183,50.73919
862586.4,400.3752,244.7202,63.45643,50.74225
862601.6,400.0928,244.8774,63.44027,50.76027
862618.6,400.0072,244.8777,63.43536,50.76031
862634.9,399.9313,244.8329,63.43102,50.75517
862652,400.0117,244.8258,63.43562,50.75436
862670,400.1296,244.9253,63.44237,50.76577
862688.9,400.1998,245.1353,63.44639,50.78982
862705.1,400.2975,245.41,63.45199,50.82125
862719.6,400.41,245.6552,63.45842,50.84927
862735.9,400.4239,245.924,63.45921,50.87994
862753.1,400.1829,246.237,63.44542,50.91562
862774.4,400.0292,246.3103,63.43662,50.92396
862790.9,399.568,246.4301,63.41018,50.93758
862806.3,399.0843,246.448,63.38239,50.93962
862820.8,398.4484,246.6821,63.34577,50.96624
862836.4,397.5915,246.887,63.29628,50.98951
862851.9,396.0186,246.9517,63.205,50.99686
862869.9,393.2669,246.8401,63.04391,50.98419
862885.2,386.9531,246.1897,62.66743,50.91022
862906.4,381.2525,245.9025,62.3191,50.87749
862925.9,376.4276,245.838,62.01782,50.87013
862936.7,369.2214,246.3276,61.55646,50.92593
862951.9,363.1768,246.798,61.1586,50.9794
862970.7,357.3587,246.9719,60.76593,50.99915
862987.9,352.5894,246.8403,60.43671,50.98421
863005.5,348.6062,246.7235,60.15654,50.97095
863019.9,345.1379,246.7551,59.90863,50.97454
863036.1,341.9521,246.9707,59.67761,50.99901
863055.1,339.7009,247.3599,59.51241,51.04313
863071.9,337.2809,247.4345,59.33301,51.05158
863088.1,334.9626,247.3294,59.15936,51.03967
863104.5,333.2216,247.13,59.02777,51.01708
863119.8,331.3198,246.8969,58.88287,50.99064
863136.6,329.6137,246.5582,58.75184,50.95216
863154.3,328.0165,246.1499,58.62828,50.90569
863173.4,327.0835,245.9738,58.55569,50.88563
863186.9,325.7215,245.6836,58.44918,50.85251
863203.8,324.3974,245.4338,58.34501,50.82397
863219.8,322.9752,245.1484,58.23244,50.79132
863237.7,321.3622,244.9039,58.1039,50.76332
863255.8,320.0655,244.636,57.99989,50.73259
863270.7,318.3556,244.2295,57.8618,50.68589
863291.1,316.6155,243.6862,57.72017,50.62333
863305.8,314.7404,243.0684,57.56631,50.55199
863321.6,312.7742,242.4999,57.40356,50.48614
863338.1,310.8732,242.0644,57.24483,50.43559
863355.5,309.0576,241.4929,57.09194,50.36906
863371.9,306.9001,240.8096,56.9086,50.28929
863390.3,304.8142,240.1978,56.72962,50.21764
863405.5,301.942,239.5335,56.48035,50.13959
863422.2,298.9253,238.7696,56.21496,50.04953
863440,295.6202,237.7105,55.91993,49.9241
863457.1,292.4951,236.7814,55.63676,49.81353
863471.6,288.5832,235.6711,55.27645,49.68072
863490.7,285.0261,234.7246,54.94304,49.56693
863505.9,281.0295,233.8955,54.56172,49.46682
863523.1,277.249,232.8327,54.19433,49.33788
863539.4,273.5362,231.7506,53.82705,49.20592
863556,269.2196,230.3322,53.39178,49.03185
863574.6,265.6977,229.0729,53.02994,48.8763
863591.4,261.6825,227.6062,52.60986,48.69388
863610.4,257.6063,226.4789,52.175,48.55277
863627.7,254.372,225.3904,51.8238,48.41577
863640.5,250.6943,224.3574,51.41768,48.28507
863657.3,247.0466,223.2696,51.00762,48.14671
863677.4,243.7561,222.3326,50.63139,48.02693
863690,240.3728,221.4998,50.23816,47.92
863707,236.7523,220.593,49.81005,47.80307
863723.6,232.8198,219.7072,49.33632,47.68833
863741.6,228.9235,218.8491,48.85777,47.57669
863757.8,224.2128,217.7663,48.26674,47.43514
863774.8,219.1322,216.8675,47.61357,47.31707
863792.5,214.7312,215.9861,47.03428,47.20076
863807.1,208.9635,214.817,46.25558,47.0457
863824,203.3814,213.6728,45.48028,46.89306
863841,198.1261,212.554,44.73032,46.74297
863858.1,192.5686,211.4719,43.9155,46.597
863875.8,187.5589,210.5683,43.16138,46.4745
863892.6,183.0783,209.7749,42.47071,46.3665
863907.3,178.65,208.9789,41.77282,46.2577
863927.5,174.9312,208.4269,41.17476,46.18199
863941.5,171.0629,207.8405,40.54084,46.10134
863959.5,168.4679,207.5335,40.10876,46.05903
863972.8,165.6232,207.2455,39.62871,46.01926
863991.9,163.5859,207.1086,39.28075,46.00035
864007.7,161.8334,207.0044,38.97864,45.98594
864024.2,160.7107,207.2042,38.78374,46.01356
864040.4,159.9221,207.2149,38.64619,46.01504
864059.1,159.6427,207.3295,38.59733,46.03086
864074.8,159.4585,207.3826,38.56509,46.0382
864090.3,159.7003,207.4809,38.60742,46.05176
864107.8,160.7853,207.7105,38.79673,46.08343
864125.1,161.9772,208.1014,39.00352,46.13726
864141.9,163.5034,208.4926,39.26659,46.19101
864157.9,165.7101,208.7156,39.64346,46.22161
864173.1,167.81,208.7319,39.99834,46.22385
864191.3,170.5341,208.7427,40.45325,46.22532
864207.6,173.355,208.8491,40.91793,46.23991
864227.9,176.0463,209.1441,41.35526,46.28032
864240.2,178.7645,209.4022,41.79105,46.31561
864257.1,180.8677,209.4477,42.12425,46.32183
864273.4,182.8402,209.4345,42.43358,46.32002
864290.5,184.999,209.5865,42.76868,46.34077
864307.6,187.3382,209.7875,43.12771,46.36821
864323.8,190.0541,209.9885,43.53935,46.39562
864340.8,192.8127,210.079,43.95177,46.40794
864358.5,195.5293,210.222,44.35241,46.42742
864375.8,198.6103,210.627,44.80024,46.48248
864392.9,201.3168,211.0175,45.188,46.53547
864407.5,205.138,211.3066,45.72659,46.57463
864428.2,208.5343,211.0199,46.19674,46.5358
864444.6,211.9862,210.1862,46.66647,46.42254
864456.6,216.9613,208.4711,47.32942,46.18806
864474.7,222.4491,207.0021,48.04185,45.98563
864493,229.0749,205.7585,48.87654,45.81309
864524.9,238.7499,204.4279,50.04721,45.62729
864547.5,244.7532,203.8117,50.74604,45.54082
864558.8,246.9599,203.6156,50.99779,45.51324
864566.7,249.4128,203.5859,51.27444,45.50906
864578.4,252.5783,203.5536,51.62664,45.50453
864590.6,256.1747,203.3611,52.02023,45.47742
864607.5,259.473,203.0387,52.37521,45.43198
864623.9,262.6782,202.7502,52.71479,45.39124
864643.2,265.6171,202.3837,53.02158,45.33941
864657.4,268.8614,202.1923,53.35527,45.31231
864673.2,273.5152,202.165,53.82495,45.30844
864691.4,277.5702,202.2076,54.2258,45.31447
864710.8,281.7787,202.1426,54.63375,45.30527
864724.1,286.0514,202.1381,55.03971,45.30463
864751.5,290.5772,202.0248,55.46094,45.28857
864766.6,294.2465,202.0877,55.79597,45.29749
864775.8,297.3902,202.097,56.07849,45.29881
864789.6,301.0665,201.9134,56.40371,45.27276
864807.8,304.0479,201.6708,56.66344,45.23833
864824.1,307.1998,201.476,56.93418,45.21065
864840.4,310.3595,201.5398,57.2017,45.21972
864857.7,313.2626,201.8113,57.44413,45.25827
864874.2,316.0795,202.2375,57.67632,45.31871
864895.9,318.0103,202.5732,57.83378,45.36623
864912,319.9485,202.9621,57.99047,45.42117
864930.2,322.3483,203.7506,58.18259,45.53223
864945.4,323.8984,204.226,58.3056,45.59899
864958.1,325.5242,204.5191,58.4337,45.64005
864977.7,326.9694,204.5891,58.54679,45.64986
864995.4,328.3677,204.7112,58.65552,45.66695
865013.5,330.3122,205.0464,58.80561,45.7138
865030.9,332.4359,205.3569,58.96805,45.75714
865041.6,334.8078,205.4733,59.1477,45.77336
865059.9,337.5403,205.1084,59.35233,45.72245
865077.2,340.6377,204.6546,59.58135,45.65903
865096.1,344.3481,204.1406,59.85165,45.58701
865112.8,348.9576,203.4841,60.18144,45.49473
865127.4,353.9331,202.8781,60.53014,45.40931
865146.8,358.9668,202.346,60.87543,45.33407
865161.6,363.8154,202.1509,61.20111,45.30644
865178.6,367.9699,201.9891,61.47491,45.28351
865196.9,371.662,201.9449,61.71426,45.27723
865212.8,375.1903,202.0356,61.93958,45.2901
865228.3,377.4618,202.3262,62.0829,45.33127
865241.4,380.0727,202.7422,62.24598,45.39011
865258.4,382.9132,203.0056,62.42141,45.4273
865279.9,385.7928,203.3896,62.59719,45.48143
865293.2,389.5641,203.8623,62.8243,45.54792
865312.3,392.2859,204.1262,62.98605,45.58498
865325.3,396.2654,204.5618,63.21936,45.64603
865344.4,400.056,204.7814,63.43816,45.67677
865363.8,403.1158,204.8602,63.61237,45.68779
865380,406.7569,205.0947,63.81693,45.72055
865397.4,410.2314,205.2905,64.00939,45.74788
865412.7,414.8456,205.3936,64.26096,45.76225
865430.6,418.9375,205.4451,64.48027,45.76943
865447.3,423.3729,205.5192,64.7141,45.77976
865462.3,428.1655,205.477,64.9623,45.77388
865483.3,432.1208,205.4086,65.16372,45.76434
865498.2,435.8505,205.4267,65.35089,45.76687
865511.7,440.1635,205.545,65.56406,45.78335
865530.2,444.2014,205.656,65.76053,45.79881
865547.2,448.1034,205.5723,65.94757,45.78716
865564.6,451.468,205.3843,66.10669,45.76096
865578.6,454.0948,205.207,66.22955,45.73622
865594.8,456.3565,205.1227,66.33438,45.72446
865612.2,458.2087,205.2805,66.41958,45.74648
865627.9,459.5617,205.5448,66.48145,45.78333
865644.6,459.3797,205.92,66.47315,45.83555
865663.4,458.6286,206.3173,66.43882,45.89074
865680.3,456.4551,207.3533,66.33893,46.03416
865697.6,454.9514,208.2121,66.26936,46.15248
865709.9,453.6279,209.2411,66.20779,46.29358
865729,452.2758,210.3517,66.1446,46.44506
865747,451.0892,211.3625,66.08887,46.58221
865766.5,450.3608,212.0277,66.05455,46.67207
865783.8,449.8827,212.6168,66.03197,46.75142
865797.1,449.6915,212.9182,66.02293,46.79193
865811.4,449.5475,213.2003,66.01611,46.82977
865831.2,449.373,213.336,66.00784,46.84797
