Time Stamp(ms),Intersection,,Angle,
,x,y,x,y
2100726,317.8241,226.9249,57.81866,48.6087
2100741,317.9368,226.6911,57.82782,48.5794
2100760,318.0579,226.5321,57.83765,48.55946
2100775,318.2119,226.2496,57.85015,48.52398
2100794,318.4655,225.7621,57.8707,48.46264
2100814,318.9135,225.1834,57.90697,48.38964
2100831,319.4051,224.6721,57.94668,48.32496
2100855,319.8956,224.4075,57.98622,48.29143
2100874,320.282,224.1589,58.01729,48.25988
2100892,320.3859,223.9625,58.02564,48.23494
2100910,320.3359,223.7049,58.02163,48.20217
2100928,320.1298,223.3343,58.00506,48.15497
2100948,319.7738,222.9057,57.9764,48.10026
2100970,319.4991,222.5747,57.95426,48.05794
2100989,319.2028,222.501,57.93035,48.0485
2101008,318.9135,222.8501,57.90697,48.09316
2101027,318.7127,223.6318,57.89072,48.19287
2101048,318.71,223.7045,57.89051,48.20211
2101063,318.7505,223.2987,57.89379,48.15042
2101082,318.7037,222.9649,57.89,48.10783
2101103,318.4985,223.0479,57.87338,48.11842
2101123,318.2097,223.5535,57.84997,48.1829
2101141,317.8556,224.2028,57.82122,48.26546
2101160,317.2704,224.6885,57.77361,48.32705
2101179,316.4833,224.6306,57.70937,48.31971
2101198,315.5311,224.5071,57.63136,48.30406
2101219,314.4519,224.7972,57.54252,48.3408
2101238,313.0733,225.5387,57.42842,48.43449
2101258,311.0505,226.2192,57.25969,48.52016
2101276,308.9729,226.6438,57.08478,48.57347
2101294,306.0253,226.7592,56.83374,48.58793
2101314,302.4806,226.698,56.52734,48.58027
2101333,298.344,226.6274,56.1634,48.5714
2101352,293.5832,226.7942,55.73582,48.59233
2101372,288.1743,227.1076,55.2384,48.63157
2101393,282.4186,227.1089,54.69507,48.63173
2101410,277.0133,226.799,54.17121,48.59293
2101428,270.7115,226.5571,53.54324,48.5626
2101448,263.8622,226.6644,52.83892,48.57606
2101472,257.2423,226.828,52.13575,48.59656
2101488,249.6243,226.8463,51.29815,48.59885
2101508,243.1641,226.637,50.56305,48.57261
2101526,237.0125,226.3759,49.84108,48.53984
2101545,230.9936,226.201,49.11317,48.51788
2101564,224.7047,225.9943,48.32909,48.49187
2101583,218.5596,225.9431,47.53893,48.48543
2101606,213.2358,226.0673,46.83454,48.50106
2101630,207.4094,226.6875,46.0419,48.57894
2101645,203.5727,227.4012,45.50721,48.66828
2101662,199.7968,228.2953,44.97087,48.77975
2101681,197.1883,229.4445,44.5944,48.9223
2101697,194.6872,230.5376,44.22881,49.05714
2101719,193.7986,232.054,44.09781,49.24299
2101738,193.4457,232.9439,44.04561,49.35141
2101759,193.3427,233.2062,44.03036,49.38328
2101776,193.4695,233.1072,44.04913,49.37125
2101794,193.5671,232.9065,44.06358,49.34686
2101813,194.2133,232.6713,44.159,49.31825
2101830,195.1193,232.4667,44.29229,49.29332
2101851,195.9821,232.3229,44.41866,49.2758
2101871,197.1702,231.6631,44.59177,49.19522
2101892,198.1153,231.0089,44.72876,49.11504
2101909,199.2891,230.1818,44.89799,49.01333
2101928,200.289,229.553,45.04137,48.93571
2101945,200.9191,228.9033,45.13135,48.85526
2101962,201.395,227.5631,45.19912,48.6885
2101981,201.1485,225.0822,45.16404,48.37685
2102001,200.1797,221.9485,45.02573,47.97767
2102021,197.4376,217.7469,44.6306,47.43261
2102042,193.9337,213.2527,44.11776,46.83681
2102061,190.6653,208.8841,43.63121,46.2447
2102080,188.6253,205.6641,43.32348,45.79994
2102097,187.1432,202.5948,43.09794,45.36927
2102115,186.6858,200.1367,43.02799,45.01957
2102135,187.3003,198.0347,43.12193,44.71711
2102155,188.991,196.5688,43.37888,44.50428
2102174,191.7942,195.3737,43.80016,44.32961
2102193,195.3254,194.1741,44.32252,44.15322
2102218,199.3802,193.2355,44.91108,44.01449
2102231,203.9093,192.3575,45.55453,43.88411
2102248,208.3438,191.4384,46.17057,43.74701
2102268,213.2902,190.7858,46.84183,43.64929
2102288,218.2243,190.2687,47.49511,43.57164
2102307,223.4018,189.8169,48.16357,43.50362
2102328,228.9503,189.5169,48.8611,43.45836
2102346,234.77,189.3272,49.57241,43.42972
2102364,240.5775,189.581,50.26213,43.46804
2102381,247.3331,189.9713,51.04009,43.52688
2102400,254.544,190.624,51.84261,43.62502
2102419,262.0215,191.4903,52.64565,43.75477
2102439,270.3806,192.8154,53.50974,43.95218
2102459,279.1305,194.4267,54.37799,44.19046
2102479,289.3956,196.3555,55.35183,44.47319
2102497,297.7382,197.9448,56.10952,44.7041
2102515,308.6277,199.9921,57.05555,44.99887
2102533,319.6242,201.7588,57.96435,45.25083
2102554,331.175,203.2912,58.87179,45.46757
2102575,342.4152,204.8479,59.71138,45.68605
2102594,355.5706,206.7378,60.64328,45.94905
2102613,366.132,207.9824,61.35438,46.12088
2102632,375.3194,209.0251,61.94776,46.26402
2102649,385.6623,209.7763,62.58927,46.36669
2102668,395.0125,210.0505,63.14631,46.40406
2102690,403.2584,210.148,63.62043,46.41735
2102713,411.027,210.4999,64.05309,46.46521
2102728,418.6014,211.4247,64.46239,46.59062
2102747,425.4852,212.618,64.82406,46.75157
2102765,431.0468,213.4536,65.10933,46.86372
2102782,436.2117,214.1726,65.36887,46.95984
2102802,441.0448,214.7652,65.60719,47.03881
2102820,445.8777,215.3724,65.84121,47.11948
2102841,450.1398,216.1143,66.04411,47.2177
2102861,453.3619,216.8684,66.19539,47.31719
2102880,456.311,217.5092,66.33228,47.40143
2102899,459.1302,218.2744,66.46175,47.50167
2102919,460.9353,219.0046,66.54396,47.59695
2102934,462.21,219.5469,66.60168,47.6675
2102955,462.8808,219.9789,66.63195,47.72357
2102974,462.9336,220.2442,66.63433,47.75795
2102993,462.3206,220.3487,66.60668,47.77148
2103014,460.8483,220.3679,66.54001,47.77396
2103031,458.796,220.4317,66.44647,47.78222
2103050,456.6792,220.5403,66.34927,47.79626
2103068,453.5423,220.7043,66.2038,47.81744
2103087,449.9106,220.8615,66.03329,47.83775
2103107,446.0373,220.9315,65.84887,47.84679
2103126,441.9372,220.9416,65.65073,47.84809
2103145,437.9487,220.9368,65.45503,47.84746
2103165,433.5789,220.8285,65.23721,47.83348
2103182,429.4077,220.67,65.02588,47.81301
2103201,424.9023,220.3357,64.7938,47.76979
2103221,420.1901,220.0027,64.54671,47.72666
2103241,415.1792,219.7074,64.27897,47.68836
2103261,410.0683,219.4759,64.00041,47.65828
2103280,405.0528,219.0811,63.72155,47.60692
2103299,398.393,218.5162,63.34258,47.53325
2103324,394.3245,218.2054,63.10604,47.49263
2103337,389.9155,217.7979,62.84528,47.43929
2103354,384.719,217.3473,62.53188,47.38016
2103375,379.629,217.1221,62.21838,47.35056
2103396,374.7522,216.973,61.91178,47.33096
2103414,370.3181,216.9463,61.62757,47.32745
2103432,365.7881,217.1488,61.33172,47.35408
2103451,361.8229,217.5164,61.06808,47.40237
2103468,357.1411,218.21,60.75105,47.49323
2103489,351.9292,219.347,60.3906,47.64152
2103511,346.6193,221.1835,60.01497,47.87927
2103530,341.124,223.6894,59.61703,48.20021
2103548,335.4968,226.213,59.19952,48.51938
2103567,330.987,227.7935,58.85739,48.71725
2103584,326.3021,228.7604,58.49466,48.83754
2103604,322.1767,229.1699,58.16892,48.88831
2103623,318.1983,229.4808,57.84904,48.92679
2103646,314.4177,229.6235,57.5397,48.94442
2103664,310.8767,229.8168,57.24513,48.9683
2103684,307.7194,230.0397,56.97844,48.99581
2103702,305.0587,230.2819,56.75069,49.02567
2103726,302.2744,230.4617,56.50937,49.0478
2103739,299.5642,230.6081,56.27148,49.06581
2103756,296.967,230.8197,56.0407,49.09182
2103779,294.5103,231.1528,55.81983,49.13271
2103797,292.1283,231.3509,55.60326,49.15699
2103816,290.0508,231.4895,55.4124,49.17397
2103834,288.1988,231.6022,55.24069,49.18776
2103852,286.3394,231.8102,55.06678,49.2132
2103879,284.915,232.0581,54.93254,49.24349
2103895,283.9901,232.2576,54.84488,49.26784
2103915,283.3901,232.4821,54.78782,49.2952
2103932,283.2143,232.6433,54.77106,49.31484
2103952,283.5525,232.6826,54.80328,49.31962
2103971,284.2141,232.6733,54.86615,49.31849
2103993,285.1691,232.6528,54.95655,49.31599
2104011,286.1257,232.7249,55.0467,49.32477
2104029,287.438,232.8608,55.16972,49.3413
2104049,288.7582,233.2157,55.29272,49.38443
2104068,289.5274,233.5436,55.36403,49.4242
2104086,289.9684,234.0314,55.40479,49.48326
2104106,290.0244,234.7535,55.40996,49.57041
2104123,289.771,235.5604,55.38655,49.66745
2104143,289.4584,236.2569,55.35764,49.75088
2104163,288.7217,237.0464,55.28932,49.84512
2104180,287.9543,237.7302,55.2179,49.92644
2104201,287.2541,238.2938,55.15252,49.99326
2104217,286.332,238.9702,55.06609,50.07322
2104238,285.4033,239.8054,54.97866,50.17157
2104258,284.5521,240.78,54.89819,50.28584
2104278,283.7865,241.9205,54.82553,50.41885
2104297,283.1146,243.2038,54.76155,50.56764
2104317,282.5256,244.5633,54.70531,50.72424
2104336,282.078,245.8123,54.66246,50.8672
2104354,281.5258,247.0051,54.60947,51.00291
2104373,280.9568,248.1167,54.55472,51.12868
2104393,280.3296,248.9546,54.4942,51.22302
2104413,279.7403,249.7135,54.43717,51.30814
2104433,279.1127,250.429,54.37627,51.3881
2104452,278.4484,251.1289,54.3116,51.46605
2104470,277.7432,251.8951,54.24273,51.55108
2104488,276.7275,252.6496,54.14313,51.6345
2104510,275.3744,253.2796,54.0097,51.70392
2104529,273.4708,253.8351,53.82052,51.76497
2104547,270.4958,254.2056,53.5214,51.80558
2104567,265.8087,254.4259,53.04144,51.8297
2104586,259.6161,254.4978,52.39049,51.83756
2104603,252.09,254.675,51.57266,51.85693
2104621,243.8284,254.2361,50.63972,51.80891
2104641,235.3597,253.4693,49.64335,51.72479
2104662,227.2003,252.6452,48.64317,51.63402
2104682,219.5805,251.6059,47.67188,51.51903
2104703,212.4711,250.3257,46.73181,51.37657
2104719,207.3732,248.9104,46.0369,51.21805
2104737,202.1486,247.3147,45.30612,51.03801
2104762,197.7176,246.0115,44.6712,50.88992
2104776,193.6779,244.9524,44.07996,50.76887
2104799,191.4012,244.0821,43.74145,50.66893
2104825,189.5005,243.3561,43.45588,50.58523
2104841,188.5452,243.0471,43.31134,50.54952
2104856,187.7802,242.8203,43.19508,50.52328
2104873,187.5634,242.6271,43.16206,50.50089
2104893,187.965,242.3728,43.2232,50.4714
2104914,188.7308,241.8442,43.33948,50.40997
2104932,189.9266,240.963,43.52014,50.30723
2104953,191.4507,239.6261,43.74885,50.15048
2104971,193.0793,238.0471,43.99133,49.96404
2104988,194.923,235.8828,44.26347,49.70609
2105005,197.0342,233.0074,44.57201,49.35912
2105025,199.0967,229.7956,44.87032,48.96569
2105050,201.6848,225.4065,45.24031,48.41781
2105066,204.2503,220.8844,45.60239,47.8407
2105085,206.6479,216.5208,45.9366,47.27138
2105104,208.2797,212.2863,46.16177,46.70693
2105121,209.2955,208.4305,46.30102,46.18248
2105140,210.0333,205.2489,46.40172,45.74207
2105158,210.7383,201.7927,46.4976,45.25563
2105183,211.1812,199.143,46.55765,44.87698
2105200,211.3602,196.4062,46.58189,44.48057
2105217,211.3196,193.8105,46.5764,44.09956
2105236,211.1641,191.5145,46.55534,43.75839
2105256,210.8494,189.3353,46.51268,43.43094
2105273,210.7177,186.6843,46.4948,43.02776
2105292,210.745,183.5301,46.4985,42.54106
2105314,210.8093,180.7538,46.50723,42.10629
2105331,210.9055,178.0167,46.52029,41.67176
2105352,210.9827,175.8747,46.53076,41.32754
2105370,211.1533,173.8195,46.55387,40.99383
2105388,211.4252,171.9408,46.59068,40.68578
2105406,211.9762,170.0462,46.66513,40.37222
2105425,212.7691,168.3688,46.77189,40.09216
2105444,213.7192,167.0959,46.89927,39.87806
2105464,214.8057,166.012,47.0442,39.6947
2105483,216.1833,165.1416,47.22683,39.54676
2105503,217.8696,164.4152,47.44868,39.4228
2105524,219.6944,163.6962,47.68666,39.29967
2105540,221.4105,163.0258,47.90851,39.18448
2105557,223.6294,162.4511,48.19256,39.08542
2105578,225.9327,162.0334,48.48413,39.01324
2105597,228.2367,161.5716,48.77245,38.93329
2105617,230.5683,160.949,49.06092,38.8252
2105636,233.7465,160.1253,49.44879,38.68169
2105657,235.9903,159.6269,49.71898,38.59458
2105673,238.7949,159.1044,50.05252,38.50301
2105693,241.9981,158.54,50.42788,38.40386
2105710,245.5013,158.0307,50.83168,38.31416
2105732,249.6268,157.6872,51.29843,38.25351
2105748,254.2318,157.5352,51.80845,38.22665
2105769,258.6901,157.3937,52.29147,38.20164
2105788,263.6802,157.4685,52.81988,38.21486
2105806,268.9504,157.3531,53.36434,38.19444
2105825,274.0472,157.0025,53.87799,38.13236
2105843,279.8907,156.6582,54.45174,38.07129
2105862,285.7898,156.6179,55.01509,38.06412
2105882,291.8632,156.7758,55.57901,38.09216
2105902,296.8398,156.76,56.02933,38.08936
2105923,302.6779,156.4555,56.54453,38.03527
2105944,307.2744,156.0839,56.94054,37.96918
2105961,312.0727,155.7323,57.34515,37.90652
2105976,317.4005,155.6028,57.7842,37.88342
2105996,322.4413,155.6636,58.19,37.89426
2106014,327.395,155.6716,58.57995,37.89569
2106036,331.9804,155.6146,58.93334,37.88552
2106055,336.4753,155.6138,59.27287,37.88538
2106074,340.4723,155.6418,59.5692,37.89037
2106094,343.9802,155.7846,59.82505,37.91584
2106113,347.4951,155.7986,60.07752,37.91833
2106129,350.9218,155.7879,60.31999,37.91644
2106151,354.1173,155.6982,60.54291,37.90043
2106170,357.2849,155.4568,60.76088,37.85735
2106191,359.8757,155.1513,60.937,37.80276
2106206,362.5171,154.6583,61.11456,37.71447
2106225,364.4445,154.0572,61.24288,37.60656
2106242,366.1799,153.5015,61.35753,37.5065
2106261,367.8673,152.9564,61.46821,37.4081
2106281,369.2147,152.4028,61.55603,37.3079
2106301,370.2437,151.8092,61.62276,37.20018
2106321,371.0727,151.1733,61.67631,37.08442
2106339,371.5868,150.5589,61.70943,36.97224
2106357,372.17,149.9039,61.74691,36.85228
2106376,372.7948,149.2431,61.78696,36.73088
2106395,373.3615,148.4465,61.82321,36.584
2106415,373.9265,147.7982,61.85926,36.46407
2106434,374.6091,147.2932,61.90269,36.37037
2106455,375.2167,146.8444,61.94125,36.28693
2106472,375.8312,146.2657,61.98015,36.17908
2106490,376.3931,145.5884,62.01564,36.05245
2106509,376.9414,144.9855,62.05019,35.9394
2106528,377.442,144.4581,62.08165,35.84023
2106550,377.765,144.0543,62.10192,35.76413
2106569,377.9598,143.7954,62.11414,35.71527
2106587,378.1297,143.6122,62.12478,35.68065
2106607,378.2841,143.4619,62.13445,35.65223
2106626,378.3434,143.4698,62.13816,35.65373
2106645,378.4082,143.3978,62.14222,35.64011
2106662,378.552,143.1929,62.15121,35.60131
2106679,378.7129,142.8969,62.16126,35.54522
2106699,378.884,142.5987,62.17195,35.48863
2106719,378.854,142.5406,62.17007,35.4776
2106745,378.6088,142.638,62.15476,35.49608
2106759,378.2452,142.8566,62.13202,35.53758
2106779,377.6242,143.4103,62.09309,35.64246
2106793,376.6934,144.2423,62.03457,35.79958
2106812,375.5543,145.3188,61.96264,36.00193
2106832,374.1595,146.5242,61.8741,36.22728
2106858,372.5647,147.9786,61.77223,36.49749
2106876,370.9674,149.4226,61.66952,36.76389
2106906,368.5829,151.6698,61.51491,37.17483
2106924,366.2489,153.7027,61.36207,37.54276
2106950,363.0343,155.8589,61.1491,37.9291
2106968,362.0069,156.4085,61.08042,38.02692
2106978,360.8506,156.9606,61.00276,38.12493
2106989,358.6094,157.9599,60.85116,38.30167
2107010,356.3651,158.7674,60.69789,38.44384
2107029,353.9159,159.5808,60.52895,38.5865
2107049,351.2358,160.2763,60.34204,38.70804
2107069,348.3684,160.8479,60.13966,38.80761
2107089,344.5096,161.01,59.86332,38.8358
2107109,338.1409,159.7918,59.39698,38.62342
2107127,330.9604,157.6943,58.85535,38.25478
2107145,320.0676,153.3734,58.00006,37.48341
2107163,304.0975,147.0551,56.66773,36.32614
2107187,293.4079,142.9126,55.7199,35.54819
2107202,278.6741,136.945,54.3336,34.40041
2107227,269.6498,133.3445,53.43557,33.69228
2107242,260.2291,129.8899,52.4558,33.00169
2107260,250.9886,126.6059,51.45045,32.33501
2107278,241.4642,123.7757,50.36573,31.75248
2107298,233.0507,121.8317,49.36439,31.34804
2107319,226.0821,120.5623,48.50292,31.08206
2107339,219.9778,119.9104,47.72343,30.94487
2107358,214.8295,119.7721,47.04736,30.91573
2107378,211.3337,119.9519,46.57831,30.95362
2107397,208.5082,119.9996,46.19315,30.96367
2107412,206.3139,119.9787,45.89027,30.95927
2107431,204.626,119.5782,45.65502,30.87482
2107450,203.0816,118.6194,45.43803,30.67206
2107470,201.9057,117.3214,45.27167,30.39618
2107490,201.2743,116.0808,45.18195,30.13104
2107510,200.805,115.215,45.11507,29.94518
2107526,200.3535,114.5795,45.05059,29.80829
2107545,200.3728,114.2309,45.05336,29.73305
2107562,200.4962,114.0992,45.07099,29.70458
2107583,200.4443,114.0976,45.06357,29.70424
2107605,200.3885,114.2303,45.05559,29.73291
2107622,200.4366,114.5433,45.06247,29.80047
2107640,200.6163,115.1205,45.08815,29.92484
2107659,200.8386,115.7939,45.11987,30.06952
2107678,201.1713,116.4101,45.16729,30.20156
2107698,201.491,116.9533,45.21278,30.31767
2107715,201.7689,117.417,45.25226,30.41656
2107734,201.9943,117.8518,45.28424,30.50911
2107751,202.2913,117.9962,45.32633,30.53979
2107770,202.7259,117.7538,45.38781,30.48827
2107792,203.2683,117.1672,45.46435,30.36332
2107809,203.8702,116.5578,45.54903,30.23315
2107831,204.6502,116.0292,45.65841,30.11999
2107848,205.5733,115.674,45.7873,30.0438
2107865,206.6314,115.5029,45.9343,30.00707
2107885,207.8302,115.4329,46.09992,29.99202
2107906,208.9582,115.5002,46.25486,30.00648
2107923,210.0453,115.9606,46.40335,30.10529
2107945,211.0415,116.5601,46.53873,30.23365
2107962,212.0653,116.7241,46.67714,30.26872
2107984,213.1367,116.7983,46.82125,30.28457
2107999,214.2972,116.7224,46.97647,30.26834
2108020,215.533,116.7278,47.14077,30.26951
2108038,216.8756,116.5691,47.31813,30.23557
2108057,218.2813,116.3924,47.50256,30.19778
2108074,219.7319,116.0855,47.69154,30.13206
2108093,221.3009,115.7355,47.8944,30.05701
2108111,223.1727,115.2906,48.13436,29.96143
2108130,225.1168,114.8844,48.38123,29.874
2108149,227.4411,114.4806,48.67327,29.78695
2108168,230.1703,114.1184,49.01191,29.70874
2108189,233.2657,114.0234,49.3905,29.6882
2108208,236.5349,114.2859,49.7841,29.74493
2108225,240.2748,114.8444,50.22667,29.86539
2108247,244.3946,115.6939,50.70486,30.04808
2108264,248.0007,116.427,51.11559,30.20518
2108281,252.5177,117.4428,51.61995,30.42205
2108300,256.7827,118.4567,52.08609,30.63756
2108318,261.0154,119.2524,52.53928,30.80601
2108339,265.2249,119.7528,52.98089,30.91166
2108361,269.5475,120.1068,53.42517,30.98626
2108378,273.4082,120.3545,53.81427,31.03838
2108396,277.7707,120.4966,54.24542,31.06825
2108414,282.1021,120.5069,54.66477,31.07042
2108432,286.331,120.0863,55.066,30.98193
2108452,290.1985,119.2471,55.42603,30.80491
2108471,294.2068,118.213,55.79237,30.58584
2108490,298.75,116.4959,56.19943,30.21993
2108514,302.8864,114.8335,56.56268,29.86303
2108528,307.7451,113.0696,56.98062,29.48156
2108547,312.4848,111.5026,57.37949,29.14023
2108564,317.6686,109.8128,57.80602,28.76961
2108590,323.0158,107.9492,58.23567,28.35778
2108608,328.8924,106.0351,58.69615,27.93143
2108626,334.8037,104.4896,59.14739,27.58473
2108645,340.7271,103.3069,59.58791,27.31791
2108666,346.5584,102.6096,60.01061,27.16
2108687,351.1091,102.2346,60.33314,27.0749
2108703,355.3684,101.7776,60.62935,26.97101
2108719,359.629,101.4197,60.92031,26.8895
2108738,364.3385,101.2296,61.23585,26.84617
2108758,368.962,101.5302,61.5396,26.91467
2108779,373.2425,102.1083,61.81561,27.0462
2108797,377.2005,103.1487,62.06648,27.28214
2108816,380.308,104.362,62.26059,27.55601
2108833,383.2656,105.723,62.44304,27.86159
2108853,385.798,107.1348,62.59751,28.17681
2108873,387.7994,108.5956,62.71846,28.50098
2108891,389.433,110.1248,62.81646,28.83823
2108911,390.4197,111.5181,62.87533,29.14363
2108931,391.126,112.7172,62.91734,29.40499
2108947,391.2378,113.4899,62.92397,29.57272
2108966,390.98,113.9804,62.90866,29.67891
2108986,390.5823,114.3146,62.88501,29.75112
2109004,389.9458,114.4189,62.84708,29.77363
2109025,389.3115,114.7032,62.80919,29.83496
2109045,388.5287,115.2588,62.76229,29.95459
2109063,387.4733,115.8608,62.69882,30.08388
2109082,386.4992,116.4184,62.64,30.20335
2109103,385.6996,117.0855,62.59153,30.34589
2109119,385.0869,117.7227,62.55429,30.48164
2109135,384.4424,118.3129,62.51501,30.60706
2109155,383.6607,118.955,62.46724,30.74313
2109176,382.8983,119.5146,62.42049,30.8614
2109194,382.3045,120.0232,62.38399,30.96865
2109214,381.8514,120.3953,62.35607,31.04695
2109239,381.5051,120.3198,62.3347,31.03108
2109252,381.2618,120.2819,62.31967,31.0231
2109271,381.0747,120.1255,62.30809,30.99019
2109291,381.0013,120.129,62.30355,30.99093
2109310,380.9551,120.2635,62.3007,31.01924
2109329,381.0175,120.3052,62.30455,31.02799
2109348,381.3047,119.9488,62.32232,30.95298
2109366,381.7977,118.9639,62.35276,30.74501
2109384,382.1705,117.9671,62.37574,30.53361
2109402,382.5034,117.0536,62.39623,30.33907
2109420,382.8302,116.5632,62.41632,30.23432
2109442,383.1814,116.4066,62.43787,30.20081
