Time Stamp(ms),Intersection,,Angle,
,x,y,x,y
826748.6,323.046,241.8381,58.23806,50.40926
826766.8,322.8003,241.9339,58.21855,50.42042
826780.6,322.3547,241.9011,58.1831,50.41659
826799,322.0046,241.6816,58.1552,50.39105
826813.8,321.5825,241.412,58.12151,50.35963
826833,321.2066,241.2584,58.09145,50.34172
826849,320.8937,241.1401,58.06639,50.32791
826865.7,320.6047,241.2997,58.04321,50.34654
826882.3,320.3387,241.3365,58.02185,50.35083
826898.4,320.0897,241.3509,58.00183,50.35252
826915.1,319.8107,241.4939,57.97938,50.36919
826932.4,319.6233,241.532,57.96428,50.37362
826948.4,319.4285,241.5366,57.94857,50.37416
826965.6,319.3265,241.4802,57.94033,50.36759
826982.4,319.2502,241.3593,57.93417,50.3535
826998.3,319.3526,240.9998,57.94245,50.31153
827014.9,319.4654,240.6244,57.95154,50.26763
827032.4,319.7418,240.2827,57.97383,50.2276
827049.2,319.957,240.1851,57.99116,50.21615
827066.7,320.1322,240.282,58.00525,50.22752
827082.8,320.2555,240.6244,58.01516,50.26762
827099,320.3121,241.0014,58.01971,50.31171
827115.8,320.2557,241.1413,58.01519,50.32805
827132.6,320.0131,241.281,57.99567,50.34436
827150.1,319.6685,241.3834,57.96792,50.3563
827169.1,319.2295,241.5295,57.93251,50.37334
827185.1,318.5089,241.5302,57.87422,50.37342
827199.8,317.8428,241.5383,57.82018,50.37436
827215.4,316.9817,241.3958,57.75007,50.35775
827235.3,316.1786,241.2615,57.68444,50.34208
827252.9,315.108,241.0049,57.59658,50.31212
827271.1,313.7999,240.52,57.48865,50.2554
827288.8,312.1748,240.1458,57.35366,50.21154
827303.8,310.4749,239.7196,57.2114,50.16149
827320.4,308.6689,239.1242,57.05905,50.09138
827339.9,307.2068,238.4839,56.93478,50.01575
827354,305.5977,237.6616,56.79705,49.91829
827369.8,303.8541,236.7253,56.64666,49.80684
827386.8,301.8858,235.5079,56.47544,49.66114
827401.4,299.8603,233.9942,56.29761,49.47876
827420.2,297.6223,231.85,56.09919,49.21807
827437.3,295.523,229.731,55.91119,48.95771
827453.4,293.2854,227.3926,55.70876,48.66721
827470.3,290.8458,224.684,55.48565,48.32647
827487.8,288.5983,222.3294,55.27786,48.02652
827503.1,286.5971,219.8193,55.09098,47.70288
827519.8,284.7112,216.854,54.91325,47.31529
827534.3,282.8199,213.8228,54.73344,46.91312
827551.9,281.1441,211.1877,54.57275,46.55853
827568.4,279.4266,208.4012,54.40675,46.17846
827585.3,277.6206,205.034,54.23074,45.71207
827604.6,276.4461,202.493,54.11546,45.35487
827618.5,275.2906,199.9983,54.0014,44.99976
827634.3,274.011,197.3281,53.87438,44.61472
827651.7,272.8949,194.6036,53.76295,44.2165
827668.4,271.8975,191.8328,53.66286,43.80592
827685.4,271.1052,189.2242,53.58302,43.41416
827704.4,270.2725,186.8967,53.49878,43.06026
827719.9,269.5929,184.9014,53.42978,42.7536
827736.1,269.0192,182.8971,53.37136,42.44247
827751,268.4568,180.9749,53.31393,42.14114
827767.7,267.8302,178.4631,53.24977,41.74302
827789.4,267.6754,177.4989,53.23389,41.58887
827800.4,267.3152,175.8592,53.19688,41.32504
827817.1,267.0015,174.4286,53.16461,41.09308
827832.6,266.7538,172.7049,53.13908,40.81142
827852.2,266.509,171.1028,53.11383,40.54745
827870.4,266.2816,169.4137,53.09035,40.26689
827887.6,266.1281,168.0118,53.07449,40.03224
827902.5,266.0601,166.4125,53.06746,39.76257
827920.1,266.0272,164.9753,53.06405,39.51842
827935.5,266.076,163.7726,53.0691,39.31277
827950.4,266.2651,162.28,53.08865,39.05588
827967.8,266.2542,160.7157,53.08752,38.78461
827985.2,266.2873,159.098,53.09094,38.50189
828001.4,266.295,157.4257,53.09173,38.20729
828018.4,266.2549,155.8692,53.08759,37.93092
828035.3,266.1215,154.2995,53.0738,37.65009
828052.3,266.112,152.6453,53.07283,37.35184
828068.3,266.1643,151.0043,53.07823,37.05359
828085.1,266.2471,149.375,53.08679,36.75514
828101.4,266.3478,147.4643,53.09719,36.40215
828119.9,266.508,145.8165,53.11374,36.09513
828136.7,266.5783,143.7906,53.12099,35.71437
828152.8,266.6575,142.0781,53.12915,35.38963
828168,266.8287,140.1237,53.14681,35.01579
828184.8,267.1289,138.1879,53.17772,34.64213
828202.1,267.4399,136.533,53.2097,34.31999
828218.3,267.9044,134.8282,53.25738,33.98552
828234.3,268.4214,132.91,53.31031,33.60603
828253.1,268.9063,131.3163,53.35985,33.28817
828269.5,269.6086,129.7868,53.43139,32.98091
828286.1,270.3671,128.4548,53.50837,32.71159
828302.2,271.3319,127.2572,53.6059,32.46803
828319.1,272.4537,126.2838,53.71874,32.26909
828338.8,273.6799,125.2065,53.84139,32.0479
828356.4,275.147,124.3768,53.98719,31.87682
828372.2,276.58,123.6991,54.12863,31.7366
828389.3,278.1105,123.3146,54.27863,31.65687
828405,280.0142,122.9212,54.4637,31.57514
828420.7,281.8521,122.5573,54.6408,31.4994
828436.9,283.9945,122.2005,54.8453,31.42504
828454.2,286.3221,122.1839,55.06516,31.42157
828472.1,288.2176,122.4016,55.24244,31.46696
828487.7,290.3644,122.6686,55.44133,31.52258
828505.1,292.3243,122.8477,55.62117,31.55985
828520.4,294.288,122.8727,55.79972,31.56505
828537.2,296.1246,122.7305,55.96525,31.53546
828552.7,298.1654,122.5136,56.14753,31.49031
828569.6,300.1853,122.2062,56.32626,31.42623
828586.8,302.3761,121.799,56.51824,31.34121
828603.4,304.7169,121.1924,56.72123,31.21427
828619.1,307.4453,120.5261,56.95511,31.07444
828636.1,310.3611,119.6604,57.20184,30.89218
828653.5,313.7174,118.7353,57.48182,30.69662
828669.7,317.042,117.943,57.75499,30.52848
828687.3,320.269,117.0958,58.01625,30.34808
828703.3,323.9489,116.3603,58.30959,30.1909
828722.8,327.1242,115.6571,58.55886,30.04018
828736.8,330.3615,114.8117,58.80939,29.85834
828753.9,334.0224,114.2687,59.08842,29.74121
828773.3,337.7231,113.6971,59.36593,29.61759
828792.3,340.8906,113.149,59.59991,29.4988
828809.1,343.7564,112.6207,59.80884,29.38402
828826.5,347.1157,112.1568,60.05045,29.28301
828836.9,350.0141,111.5881,60.25611,29.15891
828853.4,353.0622,110.8719,60.46964,29.00221
828869.5,356.3015,110.1366,60.69353,28.84082
828889,359.6201,109.4093,60.9197,28.68071
828908.2,362.5467,108.6302,61.11654,28.50865
828923.1,365.6366,107.6268,61.32173,28.28621
828937.5,369.1292,106.5915,61.55046,28.05573
828960.9,372.5856,105.6254,61.77357,27.83974
828978.8,375.532,104.8906,61.96123,27.6749
828992.6,378.473,104.2682,62.14627,27.53487
829011,381.332,103.6483,62.32401,27.39506
829025.9,384.0473,103.1647,62.49089,27.28575
829041.3,386.9624,102.9825,62.668,27.2445
829057.8,389.6951,102.9485,62.83212,27.2368
829078.3,392.7978,103.6424,63.01627,27.39374
829099.6,394.884,103.9219,63.13879,27.45681
829112.3,396.603,104.4416,63.23898,27.57391
829122.4,398.869,105.0759,63.37,27.71651
829139.1,400.8593,105.9643,63.4841,27.91561
829155.7,403.0308,106.8933,63.60756,28.123
829173.1,404.8647,107.7674,63.71099,28.31744
829189.4,406.7149,109.0332,63.81458,28.59771
829207.4,408.4914,110.381,63.91334,28.89451
829223.8,410.1766,112.224,64.00637,29.29766
829242.3,411.6241,114.2041,64.0858,29.72725
829259.3,412.8773,116.38,64.15421,30.19513
829274.1,414.046,119.1432,64.21768,30.78294
829291,415.0641,121.8994,64.27276,31.36218
829309.1,415.945,124.6853,64.32023,31.94051
829324.3,416.8137,127.5552,64.36688,32.52875
829340.9,417.5539,130.2353,64.4065,33.07123
829358.3,418.2223,132.8169,64.44219,33.58752
829373.7,419.0236,135.0276,64.48486,34.02478
829390.8,419.7783,136.6605,64.52491,34.34489
829406.8,420.7297,137.8914,64.57524,34.58458
829423.5,421.6355,139.0188,64.62299,34.80294
829440.1,422.4794,140.0811,64.66732,35.0076
829458.5,423.3089,141.4331,64.71075,35.26664
829472.9,424.0067,142.9223,64.74718,35.55003
829489.4,424.6054,144.9023,64.77837,35.92376
829507.6,425.0587,146.7706,64.80193,36.27319
829523.4,425.3788,149.0127,64.81853,36.68844
829538.8,425.4932,151.8432,64.82447,37.20634
829555.8,425.5545,154.5907,64.82764,37.70236
829572.5,425.4511,157.4892,64.82229,38.21852
829588.7,425.4258,160.04,64.82098,38.66679
829606.3,425.3653,162.3897,64.81784,39.07483
829622.5,425.1129,164.644,64.80473,39.46189
829639.3,424.8821,166.706,64.79275,39.81222
829656.4,424.5549,168.792,64.77573,40.16303
829673.2,424.181,170.5645,64.75627,40.4583
829690.1,423.8441,172.4365,64.73871,40.76734
829711.3,423.5117,174.1609,64.72135,41.04949
829727,423.1869,175.6677,64.70438,41.29408
829743.7,422.8607,176.9648,64.6873,41.50317
829756.8,422.5573,178.1472,64.6714,41.6926
829772.9,422.1021,179.4506,64.64751,41.90013
829790.6,421.3803,180.7473,64.60955,42.10527
829807.6,420.5169,182.308,64.564,42.35042
829824.6,419.5283,183.9627,64.51165,42.60827
829840,418.0011,186.2158,64.43039,42.95596
829857.6,416.5648,188.1993,64.35352,43.25883
829876.1,415.1285,190.0237,64.27623,43.53477
829894.3,413.6632,191.669,64.19692,43.78147
829908.1,412.3835,193.0202,64.12729,43.98257
829923.4,411.1133,194.3493,64.05782,44.17905
829943.1,410.0828,195.6077,64.00121,44.36389
829958.3,409.2458,197.0154,63.95506,44.56927
829974.3,408.2716,198.9083,63.90115,44.8432
829992.2,407.5199,200.4589,63.85942,45.06566
830007.5,406.9572,201.8379,63.82809,45.26206
830023.1,406.4436,203.4943,63.79944,45.49617
830040.4,406.0209,205.0398,63.77581,45.71288
830057.4,405.7985,206.8018,63.76336,45.95791
830073.8,405.536,208.6513,63.74866,46.21279
830090.8,405.4293,210.4286,63.74268,46.45552
830111,405.4778,212.0675,63.7454,46.67744
830127.8,405.4776,213.6577,63.74539,46.89105
830142.8,405.4654,215.3054,63.74471,47.11058
830158.8,405.4756,216.8457,63.74528,47.31419
830175.9,405.3776,218.4059,63.73978,47.51885
830190.7,405.2846,219.8671,63.73457,47.70908
830208.3,405.188,221.3634,63.72915,47.90245
830227.4,405.0257,222.6714,63.72004,48.0703
830240.8,404.7352,224.4752,63.70371,48.30002
830258.4,404.4442,226.2838,63.68734,48.52828
830276.1,403.9388,228.7642,63.65886,48.83801
830295.1,403.6521,230.6121,63.64268,49.0663
830312,403.3908,232.3018,63.62792,49.27322
830326.9,403.1858,234.0496,63.61632,49.48546
830341.4,403.0181,235.7726,63.60684,49.6929
830357.9,402.9235,237.4903,63.60148,49.89793
830376.4,402.9147,238.9839,63.60098,50.07483
830394.7,402.9998,240.1896,63.6058,50.21668
830411.9,402.8285,240.836,63.5961,50.29239
830425.9,403.1138,241.7766,63.61225,50.40211
830441.8,403.2194,242.5493,63.61823,50.49187
830457.8,403.3428,243.3121,63.62521,50.58015
830474.3,403.4272,244.0635,63.62997,50.66679
830491.9,403.5958,244.5804,63.6395,50.72621
830509.9,403.8035,244.9856,63.65123,50.77267
830527.4,403.994,245.2851,63.66197,50.80697
830543.6,404.2032,245.5309,63.67376,50.83507
830561.1,404.3409,245.8381,63.68152,50.87014
830575.9,404.4868,246.146,63.68973,50.90525
830591.1,404.5894,246.6986,63.69551,50.96811
830613.3,404.6357,247.2295,63.69811,51.02835
830628.5,404.661,247.8732,63.69954,51.10118
830645.8,404.6276,248.6618,63.69766,51.19009
830659.1,404.4592,249.6225,63.68818,51.29795
830674.4,404.1175,250.7257,63.66893,51.42117
830692.5,403.6881,251.6644,63.64471,51.52551
830708.4,403.0444,252.8377,63.60832,51.65525
830728.7,402.3849,253.8297,63.57095,51.76436
830745.3,401.7056,254.7137,63.53234,51.86116
830764.1,400.8893,255.7529,63.48581,51.97443
830780.4,399.9853,257.0069,63.43411,52.11033
830799.1,399.2245,258.2375,63.39045,52.2429
830816.4,398.5744,259.372,63.35303,52.36443
830830.3,397.9685,260.531,63.31808,52.48789
830845.1,397.223,261.9005,63.27495,52.63288
830865.8,396.5641,263.096,63.23672,52.75867
830879.9,395.93,264.3057,63.19984,52.88523
830893.6,395.2636,265.8055,63.16098,53.0411
830913.4,394.7386,267.0798,63.13029,53.17267
830926.4,394.0139,268.7841,63.08782,53.34737
830944,393.281,270.2839,63.04474,53.49994
830960.9,392.3935,271.8802,62.9924,53.66112
830979.7,391.3125,273.9964,62.9284,53.87293
830994.1,390.043,276.4799,62.85289,54.11878
831010.4,388.813,278.9194,62.77934,54.35747
831026.5,387.5473,281.0931,62.70328,54.56784
831043.7,386.192,282.9783,62.6214,54.74855
831060,384.8842,284.9612,62.54195,54.9369
831078.1,383.4258,286.9939,62.45285,55.12817
831093.7,382.0953,288.3604,62.37111,55.25573
831110.5,380.9073,288.8369,62.29774,55.30001
831127.4,379.8543,288.3739,62.23241,55.25699
831145.1,378.8696,288.0513,62.17105,55.22695
831162.1,377.9644,287.1616,62.11443,55.14387
831177.9,377.1786,286.269,62.0651,55.06017
831194.5,376.3805,284.7703,62.01484,54.91885
831212.1,375.7335,283.1088,61.97397,54.761
831230.6,375.1635,281.3645,61.93788,54.59396
831246.4,374.4343,279.3996,61.89158,54.40413
831262.4,373.7235,277.8309,61.84632,54.25131
831279.6,373.1321,276.6686,61.80855,54.13734
831295.4,372.4114,275.3235,61.7624,54.00466
831313.3,371.8531,274.1135,61.72656,53.88459
831327.6,371.2282,272.6553,61.68634,53.73895
831346.7,370.7462,270.9247,61.65524,53.5648
831362.3,370.2749,268.9878,61.62478,53.36816
831378.9,369.8475,266.872,61.5971,53.15127
831394.9,369.2916,264.5113,61.56102,52.90665
831412.8,368.7495,262.3649,61.52576,52.68183
831429.3,368.0867,260.46,61.48254,52.48034
831446,367.4026,258.992,61.43781,52.3238
831462.9,366.4681,257.5951,61.3765,52.17379
831489.2,365.7683,257.5443,61.33042,52.16832
831498.7,365.2672,257.3507,61.29734,52.14745
831512.2,364.5884,258.0464,61.25242,52.22236
831529.9,363.9843,258.9813,61.21233,52.32265
831547,363.517,259.9358,61.18126,52.42457
831564.1,363.1313,260.7344,61.15557,52.50948
831578.6,362.7175,261.0345,61.12795,52.54131
831594.8,362.1436,260.8193,61.08957,52.51849
831612.4,361.5298,260.3661,61.04842,52.47036
831628.8,360.742,259.6702,60.99545,52.39626
831645.8,359.8049,259.1285,60.93221,52.3384
831661.6,358.883,259.2636,60.86974,52.35284
831677.7,357.9423,259.7902,60.80576,52.40906
831694,356.8212,261.2616,60.72916,52.56536
831712.4,355.8806,263.0248,60.66461,52.75121
831730.5,354.8924,265.9518,60.59652,53.05624
831745.5,353.9826,268.6476,60.53357,53.33344
831762.2,353.2392,270.4718,60.48195,53.51898
831778.5,352.4911,270.7967,60.42984,53.55185
831799.4,351.6826,270.1317,60.37335,53.48451
831816,351.1161,269.1971,60.33363,53.3895
831830,350.4953,267.9992,60.29001,53.26709
831846,349.8586,266.5859,60.24514,53.12177
831862.4,349.0575,265.3305,60.18852,52.99186
831880.3,348.4302,264.9798,60.14404,52.95543
831896.3,347.5771,265.2509,60.08337,52.98359
831913.6,346.9433,265.8265,60.03814,53.04328
831930.9,346.3816,266.6004,59.99796,53.12327
831948,345.7692,268.0967,59.95403,53.27708
831966,345.3083,269.5991,59.9209,53.43041
831979.3,344.8316,271.4396,59.88655,53.61676
831994.8,344.2189,273.8465,59.84232,53.85799
832013.3,343.5884,275.8842,59.79667,54.06007
832032.9,342.9848,277.8038,59.75285,54.24866
832047.8,342.3327,279.6227,59.70538,54.42577
832062.3,341.6939,281.2962,59.65874,54.58739
832078.9,341.1119,282.8258,59.61614,54.73399
832098.5,340.5868,284.2674,59.57762,54.8712
832115.6,340.0567,285.8625,59.53863,55.02194
832134.3,339.6701,286.7249,59.51014,55.10297
832150.2,339.2683,287.1056,59.48048,55.13863
832166.5,338.7848,287.2272,59.44472,55.15001
832183.3,338.2847,287.743,59.40766,55.1982
832200.5,337.8428,288.5038,59.37484,55.26907
832216.3,337.3537,289.8155,59.33843,55.39067
832233.1,336.8661,291.3147,59.30207,55.52873
832250.8,336.349,293.6513,59.26342,55.74201
832267.4,335.8313,296.5194,59.22463,56.00064
832283.7,335.1784,301.0404,59.17559,56.40142
832301.3,334.5481,305.4965,59.12811,56.78835
832317.9,333.7606,311.0742,59.06861,57.26168
832333.8,332.6263,318.9055,58.98254,57.90633
832348.9,331.4856,327.2017,58.89555,58.5649
832366.3,330.1581,336.9393,58.79376,59.30753
832385.6,328.6647,348.3829,58.67853,60.14069
832402.4,326.795,357.4551,58.53318,60.77252
832419,325.3432,362.7531,58.41948,61.13033
832433.1,323.0398,365.791,58.23757,61.33191
832448.9,320.3179,368.3522,58.02018,61.49987
832471.3,318.607,369.2739,57.88216,61.55988
832484.3,316.9924,370.4412,57.75094,61.63553
832498.1,315.299,371.2761,57.61229,61.68942
832514.6,313.5438,371.3872,57.46744,61.69658
832533.2,312.2648,371.9811,57.36117,61.73478
832548.4,311.0904,372.7049,57.26304,61.78121
832564.5,310.1049,373.3818,57.18029,61.8245
832581.4,309.2432,373.9659,57.10762,61.86176
832597.6,308.5621,374.4415,57.05,61.89204
832615.9,307.9939,374.9667,57.00178,61.9254
832632.2,307.3563,375.268,56.94752,61.94451
832649,306.9567,375.347,56.91343,61.94952
832665.5,306.4849,375.0702,56.87312,61.93196
832684.9,306.0667,374.7593,56.8373,61.91224
832700.2,305.9279,374.1408,56.8254,61.87291
832716.4,305.7572,373.8786,56.81075,61.8562
832733.8,305.6356,373.4842,56.8003,61.83105
832748.7,305.5842,372.6072,56.79589,61.77495
832766.1,305.4998,372.0403,56.78864,61.73858
832781.8,305.4763,371.4514,56.78661,61.70072
832802.9,305.5619,369.2276,56.79398,61.55687
832824.8,305.6417,367.7079,56.80083,61.45779
832835.8,305.7471,365.9454,56.80988,61.34209
832852.5,305.761,363.5178,56.81108,61.18131
832874.1,305.7227,361.3802,56.80779,61.03838
832885.6,305.6958,359.0726,56.80548,60.88261
832906.5,305.737,355.8166,56.80901,60.66021
832927.8,305.8021,352.6183,56.81461,60.43872
832939.1,305.802,350.7572,56.81459,60.30843
832949.4,305.7587,348.2094,56.81087,60.12836
832967.4,305.7706,346.1295,56.8119,59.97989
832984.3,305.8645,343.6361,56.81996,59.80013
832998.1,306.0531,340.6895,56.83614,59.58515
833016.2,306.2956,337.6298,56.85691,59.35899
833034.7,306.5172,334.9967,56.87588,59.16192
833049.4,306.7916,331.8581,56.89933,58.924
833066.1,307.1788,328.3459,56.93239,58.65383
833082.7,307.5308,325.0208,56.96238,58.39413
833098.9,307.9568,321.5367,56.99862,58.11785
833116.3,308.3639,318.382,57.03318,57.86393
833133.6,308.6826,315.4559,57.0602,57.62518
833150.7,308.9498,312.5202,57.08282,57.38244
833169.8,309.1231,310.4913,57.09748,57.21278
833182.8,309.1808,307.8788,57.10236,56.99199
833198.4,309.16,305.3204,57.1006,56.77321
833213.9,308.9702,302.3793,57.08455,56.51851
833232,308.7591,299.9704,57.06668,56.30733
833251.8,308.3825,297.9932,57.03477,56.13221
833269.4,307.9198,296.2661,56.99548,55.97795
833282,307.129,294.5556,56.92814,55.82393
833301,306.3863,292.9153,56.86468,55.67508
833316.9,305.5959,290.9071,56.7969,55.49129
833337.1,304.9562,289.069,56.74186,55.32156
833353.4,304.4394,287.243,56.69728,55.15148
833369.2,303.9664,285.3633,56.65638,54.97489
833385.9,303.6332,283.7075,56.62753,54.81802
833399.6,303.3445,282.0705,56.60248,54.66174
833415.9,303.0955,280.0297,56.58085,54.4652
833434.3,302.876,278.0919,56.56178,54.27682
833452.6,302.6153,276.0362,56.53908,54.07507
833470.3,302.3061,274.4316,56.51213,53.91622
833487.4,301.9658,272.4461,56.48243,53.71798
833502.2,301.62,270.5875,56.45219,53.53069
833517,301.0743,268.8061,56.4044,53.34962
833536.1,300.4307,266.9706,56.34786,53.16142
833551.4,299.6851,265.3383,56.28215,52.99266
833568.1,298.6972,263.5671,56.19474,52.80804
833585.2,297.6502,261.8484,56.10168,52.62739
833602.5,296.3605,260.236,55.9864,52.45653
833620.9,295.3002,259.1346,55.89112,52.33905
833635.4,294.0461,257.71,55.77782,52.18617
833652.3,292.7276,256.1572,55.65797,52.01833
833671.1,291.2352,254.6125,55.52143,51.8501
833687.6,289.9897,253.3763,55.40676,51.71457
833701.8,288.7103,252.2288,55.28827,51.58802
833717.1,287.4688,251.2155,55.1726,51.47568
833735.3,286.2307,250.2789,55.05657,51.37136
833753.1,285.1898,249.4557,54.95851,51.27926
833769,284.061,248.6262,54.85162,51.18608
833787.6,282.8238,247.9331,54.7338,51.10795
833806.4,281.7339,247.3546,54.62945,51.04252
833821.1,280.7095,246.8511,54.53087,50.98544
833836.3,279.6123,246.5362,54.42476,50.94966
833851.8,278.3626,246.2024,54.30323,50.91167
833869.7,277.0645,245.8365,54.17623,50.86997
833886.3,275.3447,245.5736,54.00676,50.83994
833904.5,273.8113,245.3038,53.85448,50.8091
833919.9,272.1522,245.0348,53.68847,50.77832
833936.3,270.1189,244.8372,53.48321,50.75566
833953.7,267.9676,244.5955,53.26385,50.72794
833973.7,265.5003,244.215,53.00948,50.68422
833989.3,263.3562,243.8873,52.78595,50.6465
834004.7,260.8353,243.2892,52.52019,50.57751
834019.7,258.3258,242.8492,52.25238,50.52662
834035.4,255.0329,242.1454,51.89601,50.44499
834052.3,251.462,241.8073,51.50306,50.40569
834070.3,248.3171,241.6999,51.15127,50.39318
834087,245.0956,241.6654,50.78528,50.38916
834101.7,241.7976,241.6371,50.40455,50.38587
834121.8,239.0781,241.6037,50.08594,50.38198
834136.3,236.4063,241.603,49.76874,50.3819
834151.6,233.5361,241.6006,49.4233,50.38161
834169.1,231.1295,241.7384,49.12984,50.39766
834184.5,228.8813,242.153,48.85254,50.44588
834204.5,226.975,242.556,48.61497,50.49265
834221.9,225.3925,242.9353,48.41604,50.53659
834237.1,223.9703,243.3682,48.23592,50.58663
