Time Stamp(ms),Intersection,,Angle,
,x,y,x,y
448915.7,322.5657,245.5497,58.1999,50.83722
448933.8,322.8441,245.146,58.22203,50.79105
448948.2,323.1635,244.7679,58.24739,50.74772
448965.2,323.3884,244.6362,58.26522,50.7326
448981.1,323.5092,244.6424,58.2748,50.73333
448997.8,323.5794,244.7776,58.28035,50.74884
449014.8,323.6925,244.9372,58.28931,50.76713
449032.5,323.8074,244.9906,58.2984,50.77325
449048.6,323.944,245.0724,58.30921,50.78262
449065.5,323.9707,245.2707,58.31132,50.80532
449082.1,323.899,245.504,58.30564,50.832
449098.1,323.7145,245.8619,58.29105,50.87286
449115.3,323.5529,245.9675,58.27826,50.88491
449132.9,323.4081,245.756,58.26678,50.86077
449153,323.3246,245.5492,58.26017,50.83716
449168.9,323.2614,245.2628,58.25516,50.80441
449184.3,323.2511,245.0895,58.25434,50.78458
449201.1,323.2953,245.0452,58.25785,50.7795
449217.1,323.3869,245.0486,58.2651,50.77989
449233.7,323.5435,245.0278,58.27751,50.77752
449251.1,323.6792,244.9703,58.28826,50.77092
449266.9,323.9173,244.9122,58.30709,50.76427
449283.8,324.1835,244.8195,58.32813,50.75364
449299.5,324.4663,244.8111,58.35045,50.75267
449317.5,324.7937,244.8962,58.37626,50.76244
449336,325.0743,244.9321,58.39834,50.76654
449351.8,325.3324,244.9123,58.41864,50.76428
449371.8,325.5947,244.8789,58.43924,50.76045
449389.4,325.6899,244.8233,58.4467,50.75407
449401.1,325.5767,244.8379,58.43782,50.75574
449417.1,325.3809,244.8286,58.42244,50.75469
449433.2,325.0508,244.7973,58.3965,50.7511
449450.2,324.5287,244.7814,58.35538,50.74928
449470.4,323.9535,244.8112,58.30995,50.75268
449490.1,323.4787,244.8281,58.27238,50.75462
449500.4,322.965,244.9094,58.23164,50.76394
449517.3,322.445,245.011,58.1903,50.77559
449534.9,321.757,245.3727,58.13545,50.81698
449551.5,321.1543,245.886,58.08726,50.87561
449569.9,320.5109,246.6309,58.03569,50.96042
449586.8,319.945,247.3145,57.99019,51.03798
449603.2,319.476,247.8694,57.9524,51.10075
449618.8,319.112,248.265,57.92301,51.1454
449635,318.744,248.6129,57.89326,51.18459
449653.9,318.4757,249.003,57.87154,51.22845
449671.7,318.2884,249.4433,57.85635,51.27787
449688,318.0714,249.86,57.83874,51.32453
449704.6,317.8173,250.2204,57.8181,51.36482
449720.4,317.4907,250.4487,57.79155,51.3903
449739.7,317.0187,250.824,57.75309,51.43213
449751.9,316.5387,251.2825,57.7139,51.48313
449769.3,315.9971,251.7597,57.66958,51.53608
449788.2,315.1783,252.2386,57.60237,51.5891
449804.1,314.2384,252.6323,57.5249,51.63259
449819.5,313.1868,253.1285,57.43784,51.68729
449836.1,311.5399,254.012,57.30066,51.78437
449853.1,309.6539,254.767,57.1423,51.86699
449870.2,307.1253,255.3015,56.92783,51.92529
449886.6,303.1554,255.6476,56.58606,51.96297
449905,298.7238,255.8961,56.1971,51.98998
449921.1,294.4855,256.1359,55.81759,52.01602
449937.9,290.6291,256.1482,55.46571,52.01736
449954,286.0766,255.998,55.04208,52.00106
449970.5,281.8776,255.8362,54.64324,51.98348
449989.4,278.0083,255.4712,54.26864,51.94377
450005.7,274.0101,254.961,53.87429,51.88817
450020.5,270.4139,254.6282,53.51311,51.85182
450037,266.6251,254.5298,53.12581,51.84106
450055.3,263.1932,254.3062,52.76887,51.81659
450072.3,260.2068,253.9891,52.45342,51.78185
450088.3,257.5574,253.5941,52.16973,51.7385
450104.8,255.067,253.1886,51.89973,51.69391
450120.8,252.9919,252.6099,51.67225,51.63013
450136.4,251.0005,252.026,51.45178,51.56558
450152,249.1367,251.5743,51.24348,51.51552
450169.2,247.091,250.908,51.01266,51.44148
450186.4,245.2333,250.6542,50.80104,51.41321
450203,243.272,250.5901,50.57553,51.40606
450219.1,241.4725,250.26,50.3667,51.36924
450235.7,240.0201,249.5839,50.19679,51.29363
450255.3,238.9495,249.2187,50.07077,51.25267
450270.7,237.9999,249.0608,49.95844,51.23495
450286.9,237.1171,248.6805,49.85353,51.1922
450306.3,236.6519,248.241,49.79808,51.14269
450322.6,236.3474,247.7395,49.7617,51.08607
450339.2,236.222,247.3327,49.74671,51.04005
450356.5,236.3436,246.8313,49.76125,50.98319
450373.8,236.4515,246.5235,49.77414,50.94821
450389.4,236.5219,246.0034,49.78255,50.889
450404.3,236.7507,245.6003,49.80986,50.843
450423.1,236.9301,245.1283,49.83125,50.78902
450437.2,236.9572,244.5306,49.83449,50.72049
450454.4,236.8851,243.8609,49.8259,50.64347
450473.6,236.6845,243.1372,49.80196,50.55994
450488.5,236.3106,242.3727,49.7573,50.47139
450505.3,235.993,241.5488,49.7193,50.37558
450522.9,235.7088,240.5542,49.68524,50.2594
450538.7,235.5273,239.2417,49.66346,50.10524
450554.4,235.2803,238.1332,49.6338,49.97424
450572.1,235.1635,237.4239,49.61976,49.89005
450588.2,235.2009,236.4367,49.62426,49.77237
450603.9,235.4374,235.0591,49.65268,49.60721
450620.4,235.9784,233.5542,49.71755,49.42549
450638.8,236.5322,232.5457,49.78378,49.30296
450654.9,237.0819,231.779,49.84934,49.20939
450671.3,237.6265,230.8719,49.91412,49.09822
450689.4,238.0796,229.8024,49.96789,48.96652
450704.5,238.686,228.4274,50.03965,48.79618
450723.4,239.264,227.4764,50.10786,48.67768
450739,239.9112,226.881,50.184,48.60319
450755.2,240.9691,226.3232,50.30795,48.53322
450772.7,241.9462,225.609,50.42184,48.44335
450790.6,243.0371,224.7557,50.54837,48.33555
450808.9,243.9886,224.0245,50.65817,48.24281
450823.1,245.2657,223.2625,50.80474,48.14581
450839.1,246.902,222.6532,50.99121,48.06799
450854.7,248.8913,221.9901,51.21591,47.98301
450873.8,250.7464,221.7605,51.42348,47.95353
450889.6,252.6909,221.3277,51.63906,47.89785
450906,254.7086,220.7587,51.86061,47.82448
450924.4,257.1015,219.9677,52.12055,47.72212
450940.7,259.419,219.3273,52.36944,47.63897
450956.8,261.783,218.8933,52.62048,47.58245
450973.4,264.5706,218.5792,52.91283,47.54148
450991.5,267.3365,218.2113,53.19908,47.49341
451007.8,270.6103,217.692,53.533,47.4254
451028.5,273.724,217.1562,53.84578,47.35505
451041.3,276.5297,216.7293,54.12368,47.29887
451056.4,279.4881,216.1613,54.41272,47.22392
451072.1,282.2633,215.5554,54.6802,47.14375
451089.4,285.1227,214.6895,54.95216,47.02873
451106.5,288.0953,213.5579,55.23105,46.87769
451123.3,291.0836,212.2375,55.50751,46.70036
451139.6,294.4661,210.5579,55.81583,46.47309
451157,297.6245,209.0338,56.09939,46.26521
451175.3,300.4926,207.8341,56.3533,46.10046
451191.9,304.3172,206.166,56.68672,45.86973
451220,307.0662,204.6924,56.92278,45.66431
451237.7,309.0633,203.4275,57.09242,45.48677
451249.5,310.6934,202.4369,57.22974,45.34694
451259.8,312.3194,201.3873,57.36572,45.19804
451273.7,314.2161,200.3988,57.52306,45.05707
451291.9,315.8619,199.5643,57.65849,44.93753
451310.3,317.3131,198.517,57.77708,44.78679
451326.7,318.8811,197.4039,57.90435,44.62571
451340.6,320.4891,196.3073,58.03393,44.46614
451359.9,322.1653,195.1652,58.16801,44.29903
451378.6,323.4514,194.1598,58.27022,44.15113
451393.7,324.5583,193.159,58.3577,44.00315
451410.2,325.6499,192.0909,58.44357,43.84441
451426.3,326.8158,190.6497,58.53481,43.62887
451446.3,327.7878,189.5625,58.61051,43.46524
451457.9,328.7669,188.4132,58.68644,43.29131
451474.4,329.7588,187.3498,58.76302,43.12948
451492.7,330.5361,186.254,58.82281,42.96183
451509.3,331.2681,185.1798,58.87891,42.79657
451527.3,331.6748,184.0096,58.91001,42.61555
451544.7,331.9767,182.9238,58.93306,42.44663
451560.4,332.2408,181.6693,58.95319,42.25033
451577.4,332.2995,180.2546,58.95767,42.02748
451593.3,332.1955,178.719,58.94975,41.78382
451616.5,332.0336,177.4937,58.9374,41.58805
451627.1,331.8412,176.4442,58.92272,41.41941
451641.3,331.7441,175.1487,58.91531,41.21004
451658.8,331.6887,173.9469,58.91108,41.01461
451676.2,331.669,172.7098,58.90957,40.81222
451694.2,331.6275,171.7281,58.90639,40.65072
451709.6,331.5554,170.9051,58.90089,40.51474
451725.7,331.3834,169.7308,58.88773,40.31973
451754.5,331.3292,168.8063,58.88359,40.16542
451774,331.303,167.9867,58.88159,40.02802
451784.8,331.3721,167.6082,58.88687,39.96439
451795.1,331.5079,167.2511,58.89725,39.90423
451807.8,331.7303,166.8935,58.91425,39.8439
451824.8,332.0073,166.8429,58.93539,39.83535
451841.4,332.301,167.1635,58.95778,39.88947
451859,332.5719,167.5171,58.97841,39.94906
451875,332.871,168.1096,59.00115,40.04866
451895,333.1583,168.5479,59.02297,40.12216
451911.5,333.4539,169.0894,59.04538,40.21276
451927.7,333.6456,169.7149,59.05991,40.31709
451942.6,333.6496,170.3935,59.06021,40.42992
451958.8,333.6154,171.1378,59.05762,40.55324
451978,333.6064,171.8203,59.05694,40.66592
451993.2,333.6495,172.6153,59.0602,40.7967
452009.8,333.6969,173.5735,59.06379,40.95364
452027.1,333.7305,174.5336,59.06634,41.11017
452045.3,333.7493,175.3709,59.06776,41.24605
452061.6,333.7521,176.2801,59.06797,41.39296
452076.3,333.776,177.0811,59.06978,41.52185
452093.6,333.7662,177.7958,59.06904,41.63643
452109.4,333.6888,178.7016,59.06318,41.78104
452126.4,333.5991,179.489,59.05639,41.90624
452142.3,333.4199,180.292,59.0428,42.03339
452158.5,333.3133,181.4491,59.03473,42.21575
452174.8,333.2806,182.9286,59.03225,42.44738
452191.6,333.3203,184.2438,59.03525,42.65186
452208.3,333.2381,185.2084,59.02902,42.80099
452226,332.9337,186.1719,59.00591,42.94921
452242.3,332.6753,187.3187,58.98627,43.12474
452258.9,332.5084,188.5056,58.97357,43.30533
452274.1,332.3618,190.0696,58.96241,43.54168
452292.2,332.2857,191.3465,58.95662,43.73328
452310,332.2206,192.3645,58.95166,43.88516
452325.6,332.1156,193.355,58.94365,44.03218
452345.4,331.9624,194.6355,58.93196,44.22119
452362.3,331.7668,196.329,58.91704,44.46931
452379,331.6111,197.8882,58.90514,44.6959
452396,331.4625,198.8366,58.89379,44.83287
452408.3,331.252,199.5841,58.87768,44.94036
452425.5,330.9203,200.4462,58.85228,45.06384
452441.6,330.5088,201.4603,58.82071,45.20841
452460.3,330.017,202.9553,58.78291,45.42021
452479.9,329.7231,203.9859,58.76027,45.56528
452496.1,329.2701,205.3515,58.72533,45.75638
452513.4,328.8276,206.3328,58.69114,45.89289
452529.1,328.302,207.2722,58.65043,46.02296
452543.3,327.577,208.4918,58.59412,46.1909
452560.7,326.8861,209.8302,58.54029,46.37404
452577.7,326.2344,211.1294,58.48936,46.55063
452594.3,325.3366,212.4263,58.41897,46.72579
452610.7,324.1755,213.5623,58.3275,46.87827
452628.2,322.1908,214.8214,58.17005,47.04628
452644.6,319.8982,215.9758,57.98642,47.1994
452659.9,317.0327,217.0061,57.75423,47.33531
452676.5,313.482,217.702,57.46232,47.42671
452695.6,310.433,218.2578,57.20788,47.49949
452710.2,307.0751,218.6858,56.92355,47.5554
452726.5,303.7024,219.3184,56.63352,47.63781
452743.8,300.5692,220.0134,56.36004,47.72804
452761.8,297.4299,220.6745,56.08204,47.81361
452778.1,294.7247,221.2564,55.83921,47.88867
452796.3,292.6015,221.7764,55.64648,47.95557
452813.4,290.5609,222.3018,55.45943,48.02299
452830.8,288.7889,222.7244,55.29557,48.07709
452845.3,287.4632,223.1169,55.17207,48.12723
452862.7,286.103,223.7544,55.04456,48.20847
452880.5,285.3855,224.4969,54.97698,48.30276
452896.8,284.5188,225.3295,54.89504,48.40808
452917.1,283.9585,226.1731,54.84188,48.51437
452932.9,283.7792,227.143,54.82484,48.63599
452949.1,283.5388,228.1425,54.80198,48.76073
452963,283.3612,229.3812,54.78506,48.91446
452979.2,283.4049,231.363,54.78923,49.15847
452998.6,283.534,233.8787,54.80152,49.46479
453015.1,283.5876,236.5504,54.80661,49.78595
453037,283.6858,239.4915,54.81596,50.13465
453050.6,283.9957,242.4027,54.84541,50.47487
453062.9,284.3297,244.5732,54.87711,50.72538
453079,284.8185,246.2302,54.92341,50.91484
453096.3,285.5268,247.8167,54.99031,51.0948
453113.8,286.0657,248.9942,55.04106,51.22747
453137.8,286.563,249.3722,55.08778,51.2699
453148.5,286.8931,249.5766,55.11873,51.29281
453162,287.3181,250.1426,55.15851,51.35613
453178.6,287.7402,250.9338,55.19794,51.44435
453195.2,288.2637,252.0685,55.24673,51.57028
453215.1,288.701,252.9292,55.2874,51.66534
453236,289.1807,253.6684,55.33191,51.74666
453248.5,289.5013,254.2168,55.36161,51.80681
453263.2,289.8592,254.9781,55.3947,51.89003
453282.5,290.2179,256.0481,55.42782,52.00648
453297.5,290.5259,256.9499,55.45621,52.10417
453313.3,290.89,257.6144,55.48972,52.17588
453331,291.2652,257.8619,55.5242,52.20253
453349.1,291.5474,258.1147,55.55008,52.22971
453365.8,291.9539,258.8371,55.58731,52.30721
453392.4,292.3247,259.7112,55.62121,52.40063
453408.8,292.6927,260.4848,55.6548,52.48298
453417.4,292.9916,261.0143,55.68203,52.53916
453430.7,293.4666,261.5435,55.72523,52.59517
453446.9,294.132,262.1371,55.7856,52.65784
453465.2,294.7602,262.872,55.84241,52.73516
453481,295.4642,263.7776,55.9059,52.83007
453498.3,296.1356,264.5562,55.96623,52.91134
453513.9,296.7258,265.0885,56.01913,52.96672
453530.8,297.2488,265.4667,56.06587,53.00599
453548,297.6844,265.9284,56.10472,53.05383
453564.2,298.0843,266.5616,56.14032,53.11927
453583,298.2906,267.3708,56.15866,53.2026
453598.8,298.3476,267.9567,56.16372,53.26273
453617.8,298.2991,268.4506,56.15942,53.31329
453632.8,298.2311,268.8775,56.15337,53.35691
453649.7,298.1638,269.2506,56.14739,53.39495
453665.1,298.0651,269.691,56.13861,53.43976
453681.4,297.9167,270.2328,56.12541,53.49476
453698.8,297.7605,270.6159,56.1115,53.53357
453715.3,297.5817,270.8701,56.09557,53.55928
453732.1,297.4774,271.0707,56.08627,53.57954
453750.7,297.4938,271.282,56.08773,53.60086
453768.5,297.6231,271.5734,56.09926,53.63024
453781.8,297.847,271.9116,56.1192,53.66428
453799.2,298.1967,272.2809,56.15031,53.7014
453814.2,298.7539,272.5958,56.19978,53.73299
453831.8,299.4594,272.8454,56.26222,53.75799
453848.7,300.4935,273.1151,56.35338,53.78498
453864.1,301.5144,273.4472,56.44296,53.81817
453881.4,302.6101,273.8547,56.53863,53.85881
453897.6,304.1449,274.2895,56.67183,53.90209
453914.7,305.864,274.6147,56.81991,53.93441
453931.1,308.1267,274.9567,57.01306,53.96833
453948.4,310.251,275.1956,57.19258,53.992
453965.2,312.769,275.385,57.40313,54.01075
453982,315.7095,275.5567,57.646,54.02772
453998,318.7549,275.7935,57.89414,54.05112
454013.5,322.6404,276.2263,58.20584,54.09381
454033.1,327.0226,276.8791,58.55094,54.15803
454054.5,329.9403,277.2961,58.777,54.19895
454067.9,333.7768,278.0217,59.06984,54.26995
454082,337.7984,278.6941,59.37153,54.33554
454100.3,341.5862,279.4776,59.65087,54.4117
454115.7,346.006,280.216,59.97102,54.48322
454133.3,349.9872,280.6847,60.25422,54.52848
454149.8,353.7167,280.9594,60.51513,54.55496
454166.3,357.3949,281.0736,60.7684,54.56597
454184,361.1804,281.2817,61.02495,54.58599
454199.9,364.7706,281.575,61.26449,54.61419
454217.7,368.986,281.6185,61.54115,54.61837
454236.4,372.213,281.5639,61.74967,54.61312
454252.5,375.8404,281.3654,61.98074,54.59404
454266.3,379.4513,280.9299,62.20732,54.55212
454282.7,383.8587,280.002,62.47936,54.46251
454300,388.4054,278.9086,62.75489,54.35642
454316.7,393.6771,277.4718,63.06804,54.21616
454334.6,398.6563,276.1759,63.35775,54.08884
454350.3,403.4999,274.9673,63.63408,53.96939
454366.7,408.9493,273.7504,63.93868,53.84841
454386.3,412.2838,273.1743,64.12185,53.7909
454401.3,415.964,272.7599,64.32124,53.74944
454418.6,419.3156,272.6171,64.50037,53.73512
454433.4,422.8994,272.5641,64.68933,53.7298
454452.2,426.259,272.8272,64.86411,53.75618
454469,429.6218,273.0299,65.03681,53.77645
454484.3,433.0521,273.1783,65.2107,53.79129
454501.1,436.5763,273.4194,65.38701,53.81539
454517.6,440.0053,273.4554,65.5563,53.81898
454535.8,443.2255,273.4733,65.71331,53.82077
454553,446.2489,273.393,65.85902,53.81275
454570.2,449.4373,273.3706,66.01089,53.81052
454586.4,452.6908,273.3447,66.16403,53.80793
454602.9,455.5555,273.4761,66.29735,53.82105
454620.3,457.9872,273.5333,66.40942,53.82676
454638.2,459.552,273.4322,66.48101,53.81667
454653.4,461.1405,273.1519,66.55327,53.78867
454671.8,461.6871,272.7315,66.57803,53.74659
454687.8,462.3434,272.346,66.60771,53.70794
454701.4,462.7051,271.9008,66.62403,53.6632
454718.9,462.2704,271.5505,66.60441,53.62794
454734.5,461.536,271.0493,66.5712,53.57738
454754.4,460.7721,270.551,66.53655,53.527
454770.3,459.9717,270.0383,66.50014,53.47503
454786.5,459.0629,269.5438,66.45868,53.42479
454801.9,458.0397,269.1512,66.41183,53.38482
454818.8,457.228,268.7747,66.37454,53.34641
454836.6,456.39,268.3472,66.33592,53.30273
454852.4,455.6914,267.9008,66.30364,53.25701
454869.1,455.0383,267.3947,66.27338,53.20506
454886.8,454.5559,266.8866,66.25099,53.15277
454903.7,454.2352,266.3231,66.23608,53.09464
454921.8,454.1533,265.8062,66.23227,53.04118
454938,454.4107,265.3376,66.24424,52.99259
454953.6,454.4978,264.6656,66.24829,52.92274
454971.8,454.4805,264.0213,66.24749,52.85554
454987.4,454.1803,263.1246,66.23353,52.76167
455005.2,453.7278,262.3304,66.21246,52.6782
455022.1,453.3646,261.6963,66.19552,52.61132
455037.6,452.8597,260.9281,66.17193,52.53003
455055.7,452.2668,260.2536,66.14418,52.4584
455074.6,451.6555,259.6071,66.1155,52.38952
455092,450.416,258.6024,66.05716,52.28206
455113.6,449.5525,257.9964,66.01635,52.217
455130.9,448.088,257.7541,65.94684,52.19092
455149.6,447.3571,257.6741,65.912,52.18231
455158.8,446.5674,257.6903,65.87427,52.18405
455172,445.2692,257.6438,65.81198,52.17904
455187.5,444.0659,257.5851,65.75397,52.17272
455202.9,442.9916,257.0577,65.70197,52.11582
455221.7,442.1079,256.1393,65.65903,52.01639
455237.4,441.4746,255.0682,65.62818,51.89986
455254,440.8881,253.831,65.59953,51.76451
455271.7,440.4315,252.8847,65.57719,51.66043
455287.7,439.9081,252.1521,65.55154,51.57953
455304.8,439.359,251.4658,65.52457,51.50348
455319.7,438.7043,250.7216,65.49233,51.42072
455335.3,437.7136,249.8631,65.44341,51.32488
455353.2,436.7349,249.0429,65.39489,51.23294
455370.8,435.2178,248.0745,65.31933,51.12391
455392.3,434.3715,247.587,65.27699,51.06883
455406.6,433.145,246.9161,65.21539,50.99281
455420.5,431.7154,246.344,65.14321,50.9278
455437.7,430.4562,245.8291,65.07932,50.86912
455453.3,428.9227,245.272,65.00109,50.80547
455471.4,427.5064,244.7984,64.92843,50.75122
455489.1,425.8545,244.2957,64.84319,50.69349
455505.5,424.0862,243.5402,64.75133,50.60649
455520.7,422.2798,242.6932,64.65685,50.50855
455537.8,420.3061,241.7149,64.55286,50.39492
455552.3,417.9335,240.5729,64.42679,50.2616
455569.9,415.9108,239.4897,64.31838,50.13444
455588.8,413.783,238.4245,64.20342,50.00873
455606.3,411.7347,237.4285,64.09185,49.8906
455622.7,409.5974,236.5952,63.97446,49.7913
455644.6,407.506,235.9479,63.85864,49.71389
455656.1,405.4786,235.2613,63.74544,49.63152
455671.9,403.2728,234.3,63.62125,49.51571
455687.8,401.1138,233.296,63.49862,49.39417
455705.3,399.0757,232.2569,63.38189,49.26775
455722.8,397.0702,231.3405,63.26609,49.15571
455738.9,394.6054,230.3018,63.12249,49.02811
455759.2,392.9312,229.7487,63.02414,48.9599
455774.8,391.1708,229.1463,62.91999,48.88539
455789.3,389.4981,228.5081,62.82035,48.80621
455806,387.5973,227.7589,62.70629,48.71294
455824.3,385.9909,227.0888,62.60921,48.62921
455840.2,384.346,226.4222,62.50913,48.54566
455856.3,383.0371,225.9278,62.42902,48.48351
455872.3,381.7147,225.4025,62.34764,48.4173
455889.6,380.4993,224.9597,62.27246,48.36137
455906.7,379.326,224.5432,62.19951,48.30863
455921.9,378.2438,224.1109,62.13193,48.25379
455938.4,377.4046,223.6471,62.07931,48.19482
455955.9,376.497,223.1652,62.02219,48.1334
455973.5,375.8086,222.6283,61.97873,48.0648
455990.9,375.0869,222.121,61.93303,47.9998
456008.5,374.3874,221.7123,61.8886,47.94733
456024.1,373.6853,221.3681,61.84388,47.90305
456040.6,372.9794,221.128,61.79878,47.87212
456057.7,372.3843,220.9453,61.76066,47.84856
456073.6,371.6768,220.7381,61.71522,47.82182
456090.8,371.1122,220.56,61.67886,47.79879
456106.8,370.5778,220.3427,61.64436,47.77069
456123.8,370.0432,219.9966,61.60978,47.72586
456141.9,369.2669,219.6003,61.55942,47.67445
456158.7,368.3087,219.2317,61.49704,47.62653
456176.1,367.3079,218.9842,61.4316,47.59431
456192.9,366.2489,218.8509,61.36208,47.57693
456207.8,365.2803,218.6446,61.29821,47.55002
456226,364.4913,218.4153,61.24599,47.52007
456242,363.6231,218.2477,61.18832,47.49817
456259.1,362.8717,218.075,61.13825,47.47558
456275.9,362.1519,217.9172,61.09013,47.45492
456293,361.6254,217.8488,61.05484,47.44596
456309.6,361.1644,217.7786,61.02388,47.43676
456325.1,360.7386,217.8,60.99522,47.43957
456341.8,360.3324,217.8182,60.96784,47.44194
456359.5,359.9602,217.7907,60.9427,47.43835
456375.9,359.7283,217.7235,60.92702,47.42954
456394.4,359.5811,217.6489,60.91707,47.41975
456409.9,359.4544,217.4591,60.90849,47.39485
456427.1,359.2877,217.1874,60.8972,47.35915
