Time Stamp(ms),Intersection,,Angle,
,x,y,x,y
2596343,290.374,219.1672,55.44222,47.61813
2596361,289.0417,218.0105,55.31902,47.46714
2596380,288.1813,217.2256,55.23906,47.36417
2596392,287.0204,216.1711,55.13066,47.22522
2596412,286.1458,215.2169,55.04859,47.09884
2596427,285.3044,214.2235,54.96933,46.96664
2596444,284.4866,213.323,54.89198,46.84623
2596461,283.655,212.6209,54.81303,46.75197
2596478,282.8463,212.1399,54.73596,46.6872
2596495,281.9561,211.8105,54.65077,46.64275
2596511,281.1595,211.4018,54.57424,46.58751
2596527,280.3228,211.2378,54.49355,46.56532
2596542,279.4331,210.7967,54.40739,46.50552
2596560,278.6918,210.4188,54.33532,46.45419
2596577,278.0512,209.981,54.27284,46.3946
2596594,276.8629,209.2159,54.15643,46.29013
2596610,275.3722,208.4924,54.00948,46.19099
2596627,273.7556,207.7044,53.84893,46.08259
2596644,271.8593,206.9995,53.65903,45.98526
2596660,270.2041,206.1518,53.49185,45.86777
2596677,268.5725,205.0315,53.32576,45.71172
2596699,266.7023,203.2701,53.13378,45.4646
2596711,264.902,201.228,52.94733,45.17535
2596731,263.4744,199.6747,52.79834,44.95336
2596743,261.4552,197.5012,52.58584,44.63982
2596760,259.6595,195.7113,52.39511,44.37906
2596776,257.4326,194.0211,52.15628,44.13065
2596794,255.2481,192.7351,51.91948,43.94025
2596811,252.899,191.4069,51.66201,43.74231
2596827,250.3683,189.9655,51.38134,43.526
2596842,247.301,188.5826,51.03646,43.317
2596859,244.1717,187.1534,50.67924,43.0995
2596875,240.1206,185.4889,50.20859,42.84421
2596894,236.7992,184.0867,49.81565,42.62751
2596910,233.2958,182.3859,49.39415,42.36261
2596926,229.6322,180.5116,48.94551,42.06808
2596943,226.5295,178.8547,48.55913,41.80542
2596959,223.0495,177.2803,48.11863,41.55383
2596975,218.8933,175.324,47.58246,41.23846
2596996,215.5346,173.7343,47.14099,40.97992
2597012,212.3456,172.272,46.71492,40.7403
2597029,209.524,171.0133,46.33224,40.53265
2597045,206.6456,169.9105,45.93627,40.34964
2597063,203.9063,168.7006,45.55411,40.14773
2597079,201.7763,167.8802,45.25331,40.01013
2597094,199.8297,167.405,44.97559,39.93018
2597111,198.3477,167.2155,44.76235,39.89823
2597126,196.7458,167.0679,44.53005,39.87334
2597142,195.5193,167.218,44.35094,39.89865
2597161,194.4942,167.3074,44.2004,39.91372
2597175,193.611,167.382,44.07007,39.9263
2597192,192.8015,167.4703,43.95011,39.94117
2597212,192.324,167.6211,43.87912,39.96656
2597226,191.747,167.902,43.79313,40.0138
2597253,191.3569,168.1773,43.73484,40.06002
2597269,190.9016,168.4527,43.66666,40.1062
2597278,190.578,168.7182,43.6181,40.15067
2597293,190.1568,169.0673,43.5548,40.20906
2597311,189.758,169.479,43.49474,40.27777
2597327,189.506,169.7861,43.45672,40.32894
2597344,189.3159,170.2674,43.42801,40.40898
2597358,189.2544,170.696,43.41872,40.4801
2597376,189.2026,171.1127,43.41088,40.54909
2597394,189.2987,171.6593,43.42542,40.63937
2597411,189.4761,172.1484,43.45221,40.71996
2597427,189.8072,172.7294,43.50216,40.81543
2597445,190.4997,173.3301,43.60636,40.91386
2597461,191.2603,174.0906,43.72038,41.03804
2597477,192.1877,175.0927,43.85884,41.20097
2597493,193.4884,176.3332,44.05194,41.40152
2597510,194.8381,177.3383,44.25099,41.56313
2597526,196.7747,178.4902,44.53426,41.74734
2597543,199.0778,179.6392,44.8676,41.93005
2597560,201.071,180.5586,45.153,42.0755
2597578,203.1917,181.412,45.45356,42.20991
2597593,205.7812,182.0551,45.81624,42.31083
2597611,208.276,182.5961,46.16127,42.39547
2597627,211.8646,183.2969,46.65007,42.50477
2597644,215.6351,183.9559,47.15429,42.6072
2597660,220.9218,184.5976,47.84554,42.70663
2597678,225.7826,185.2486,48.46523,42.80717
2597694,231.4294,185.8601,49.16661,42.90132
2597712,238.4916,186.3913,50.01667,42.98288
2597728,245.732,186.8734,50.85804,43.0567
2597746,252.6758,187.1923,51.63739,43.10544
2597762,260.328,187.6826,52.46631,43.18021
2597779,267.007,187.9739,53.16517,43.22456
2597796,273.4115,188.2346,53.8146,43.26418
2597812,279.7882,188.5272,54.44181,43.30861
2597829,285.8384,188.2184,55.01967,43.26173
2597846,291.1842,187.8237,55.51676,43.20171
2597864,296.493,187.3626,55.99828,43.13144
2597879,301.5421,186.8974,56.44538,43.06037
2597896,307.7228,186.1297,56.97873,42.94274
2597915,311.9203,185.8379,57.33244,42.89791
2597929,316.8154,185.7834,57.7365,42.88953
2597945,321.6532,185.5279,58.12716,42.85022
2597964,326.1424,185.3332,58.48216,42.82023
2597980,329.9821,185.0299,58.78022,42.77345
2597999,334.3974,184.5761,59.11674,42.70331
2598016,338.0555,184.2467,59.39064,42.65231
2598029,341.3136,183.9974,59.63092,42.61366
2598044,344.7448,183.7306,59.8803,42.57222
2598064,347.7833,183.4929,60.09805,42.53528
2598080,350.557,183.3134,60.29435,42.50735
2598100,352.9945,183.2195,60.46493,42.49273
2598113,355.1708,183.1042,60.61573,42.47475
2598127,356.8935,183.0345,60.73411,42.46389
2598145,358.6538,182.8275,60.85418,42.43161
2598164,359.6252,182.7765,60.92005,42.42364
2598178,360.6429,182.5957,60.98878,42.3954
2598194,361.5622,182.6078,61.0506,42.39729
2598212,362.4645,182.6876,61.11105,42.40976
2598228,363.4606,182.8019,61.17751,42.42761
2598246,364.0674,183.0103,61.21786,42.46012
2598261,364.8717,182.9978,61.27118,42.45817
2598279,365.4881,183.055,61.31193,42.46709
2598294,366.1195,183.1769,61.35355,42.48609
2598314,366.7071,183.3574,61.3922,42.51419
2598332,367.3801,183.6003,61.43634,42.55197
2598355,368.1815,183.8518,61.48874,42.59105
2598363,368.9527,184.1523,61.53899,42.63768
2598377,369.9332,184.6156,61.60265,42.70942
2598393,371.2092,185.2701,61.68511,42.8105
2598411,372.4715,185.8392,61.76625,42.89811
2598428,373.9184,186.4863,61.85874,42.99743
2598447,375.2608,186.9207,61.94405,43.06393
2598463,377.1788,187.4441,62.06512,43.14386
2598479,379.1243,188.3061,62.18694,43.27505
2598495,381.9484,190.1297,62.36205,43.55072
2598517,383.9922,191.9269,62.48752,43.81997
2598532,386.5569,194.3384,62.64349,44.17745
2598547,389.1033,196.5754,62.79673,44.50523
2598563,391.7705,197.5438,62.95555,44.64601
2598581,394.4922,196.7492,63.11586,44.53056
2598598,396.6975,196.2437,63.24447,44.45686
2598611,400.003,194.5614,63.43512,44.21029
2598631,402.8329,193.079,63.59634,43.99129
2598646,405.3919,191.1805,63.74059,43.70844
2598661,408.0149,189.5652,63.88691,43.46566
2598681,410.1047,188.169,64.00242,43.25422
2598696,411.872,186.8237,64.09936,43.0491
2598712,413.4721,185.7445,64.18655,42.88355
2598729,414.5642,184.9156,64.24574,42.75579
2598745,415.7478,184.0104,64.30961,42.61567
2598763,416.6165,183.3442,64.3563,42.51214
2598779,417.1314,182.8503,64.3839,42.43516
2598795,417.809,182.2188,64.42014,42.33646
2598814,418.1525,181.8378,64.43847,42.27676
2598831,418.2729,181.4753,64.44489,42.21987
2598845,418.473,180.9432,64.45555,42.13615
2598863,418.506,180.52,64.45731,42.06941
2598879,418.558,180.2729,64.46008,42.03037
2598895,418.6095,180.0216,64.46282,41.99062
2598911,418.5862,179.8871,64.46159,41.96934
2598927,418.3654,179.9627,64.44982,41.9813
2598943,418.044,180.2262,64.43269,42.023
2598961,417.7101,180.3944,64.41486,42.04958
2598978,417.3333,180.6385,64.39471,42.08811
2598993,416.6325,181.0186,64.35716,42.14802
2599012,415.8432,181.3971,64.31475,42.20758
2599035,414.9452,181.7949,64.26633,42.27004
2599045,413.6572,182.3667,64.1966,42.35962
2599060,412.4745,182.7457,64.13226,42.41883
2599077,411.2512,183.0303,64.06538,42.46324
2599093,409.6333,183.3962,63.97644,42.52023
2599111,408.0334,183.711,63.88794,42.56919
2599131,406.2894,183.8694,63.79082,42.59379
2599145,404.6023,183.9096,63.69624,42.60002
2599161,402.9257,183.9161,63.6016,42.60104
2599179,401.2845,184.0391,63.50836,42.62012
2599196,399.4616,184.3499,63.40407,42.6683
2599213,397.3865,184.8546,63.28442,42.74637
2599230,395.2689,185.2515,63.16129,42.80762
2599249,392.8872,185.849,63.02154,42.89962
2599262,390.166,186.9027,62.86021,43.06118
2599279,387.6413,187.969,62.70894,43.22382
2599294,384.885,189.5027,62.542,43.45622
2599311,381.6921,191.7112,62.34625,43.78777
2599331,378.5911,193.799,62.15365,44.09786
2599351,375.9366,195.6985,61.98682,44.37717
2599360,372.9344,198.1132,61.7959,44.72846
2599378,370.2851,200.5721,61.62543,45.08182
2599396,367.3278,203.977,61.43291,45.56403
2599414,365.0035,206.8107,61.27991,45.95914
2599431,362.8896,209.5975,61.13945,46.34228
2599443,360.4404,213.218,60.97512,46.83216
2599461,358.187,216.5514,60.82242,47.27541
2599480,355.8563,219.8091,60.66294,47.70155
2599496,353.234,222.9978,60.48159,48.11203
2599515,350.8528,225.6982,60.31514,48.45459
2599533,347.8915,228.7348,60.10575,48.83435
2599550,344.7131,231.9303,59.87801,49.22788
2599567,342.2119,234.2755,59.69657,49.51276
2599582,339.1511,236.4886,59.47182,49.77858
2599598,336.215,238.6858,59.25339,50.03963
2599615,333.0992,241.1499,59.01848,50.32906
2599632,330.0933,243.0566,58.78877,50.55062
2599650,327.0475,244.6251,58.55288,50.73133
2599665,323.3749,245.4946,58.26415,50.83091
2599680,319.5009,246.3195,57.95441,50.92501
2599698,315.0604,247.073,57.59267,51.01062
2599713,309.1062,248.2234,57.09605,51.14071
2599732,303.6644,249.7873,56.63023,51.3164
2599748,298.0261,251.9155,56.13514,51.55334
2599763,292.162,254.2236,55.60634,51.80755
2599780,287.4419,255.5766,55.17008,51.95525
2599797,282.8362,256.2933,54.73499,52.0331
2599814,278.3205,256.8376,54.29912,52.09203
2599832,274.7629,257.3129,53.94911,52.14337
2599848,271.191,258.3109,53.59169,52.25079
2599868,267.7296,259.7598,53.23945,52.40581
2599885,264.7685,260.7299,52.93345,52.50901
2599898,261.9454,261.4193,52.63762,52.58204
2599930,257.8231,262.4363,52.19835,52.68935
2599940,256.5559,262.8164,52.06155,52.72932
2599950,255.0346,263.3607,51.89619,52.78642
2599964,253.4227,264.1342,51.71966,52.86733
2599981,251.8777,264.7939,51.54915,52.93609
2599998,250.6493,265.3169,51.41267,52.99044
2600013,249.6782,265.9305,51.30418,53.05404
2600031,248.7461,266.5204,51.19958,53.11501
2600049,248.1261,267.2091,51.12973,53.18597
2600066,247.7869,267.8214,51.09143,53.24887
2600081,247.43,268.2888,51.05107,53.29675
2600099,247.234,268.5608,51.02886,53.32456
2600114,247.2509,268.7121,51.03078,53.34002
2600130,247.1476,268.8851,51.01907,53.35769
2600148,247.0538,269.097,51.00843,53.3793
2600163,246.9705,269.5032,50.99899,53.42066
2600181,246.7785,270.0048,50.97719,53.47163
2600196,246.5801,270.417,50.95465,53.51343
2600212,246.1798,270.7828,50.9091,53.55045
2600232,245.7252,270.8346,50.85725,53.55568
2600252,245.0359,270.7937,50.77844,53.55155
2600265,244.287,270.743,50.6925,53.54642
2600278,243.4423,270.8452,50.59518,53.55676
2600295,242.3091,271.2852,50.464,53.60118
2600314,241.3387,271.5173,50.35108,53.62459
2600329,240.0899,271.7516,50.20498,53.64819
2600347,238.8847,272.0214,50.06313,53.67532
2600363,237.6192,272.3597,49.91325,53.7093
2600379,235.9097,272.613,49.70932,53.73471
2600396,233.2103,272.8456,49.38377,53.75801
2600418,230.6739,272.9628,49.0739,53.76975
2600433,227.8429,273.3098,48.72341,53.80444
2600452,224.9208,273.9371,48.35645,53.86702
2600462,220.8715,274.7481,47.83904,53.94765
2600480,217.4878,274.9876,47.39861,53.9714
2600495,213.6521,274.839,46.89029,53.95667
2600511,210.065,274.2673,46.40604,53.89989
2600529,207.0386,273.8675,45.99068,53.86008
2600545,203.8428,273.4738,45.54519,53.82082
2600560,200.5209,273.11,45.07451,53.78448
2600578,197.5089,272.9207,44.64095,53.76553
2600595,194.5335,272.8704,44.20618,53.7605
2600613,192.3554,272.725,43.8838,53.74593
2600629,190.4092,272.4551,43.59275,53.71888
2600646,188.854,272.3666,43.35814,53.71
2600663,187.2403,272.3509,43.11277,53.70842
2600680,186.0641,272.506,42.93267,53.72398
2600695,185.2255,272.6139,42.80362,53.7348
2600713,184.4739,272.8129,42.6875,53.75474
2600728,184.0087,273.024,42.61541,53.77586
2600746,183.632,273.0671,42.55691,53.78018
2600762,183.522,273.0042,42.53981,53.77389
2600778,184.0675,273.1393,42.62453,53.7874
2600795,184.7057,273.1362,42.72336,53.78709
2600812,186.0756,273.2177,42.93444,53.79523
2600829,187.4684,273.233,43.14757,53.79677
2600846,189.3053,273.2156,43.4264,53.79503
2600862,191.9929,273.4004,43.82981,53.81349
2600879,194.6587,273.4833,44.22461,53.82177
2600896,197.8157,273.4162,44.68541,53.81507
2600913,201.6118,273.1109,45.22995,53.78456
2600929,205.3374,272.807,45.75442,53.75415
2600949,209.2706,272.3921,46.29762,53.71255
2600963,213.4058,272.071,46.85732,53.68032
2600980,217.1235,271.8248,47.35075,53.65555
2600998,222.0271,271.5645,47.98776,53.62934
2601014,226.9733,271.2668,48.61475,53.59933
2601030,231.9747,271.0426,49.2333,53.5767
2601047,238.0588,271.0012,49.96542,53.57253
2601063,244.0819,271.0374,50.66891,53.57618
2601079,250.8936,271.3356,51.43988,53.60627
2601096,257.9011,271.4244,52.20674,53.61523
2601116,264.3412,271.2603,52.88892,53.59867
2601130,272.1015,271.0316,53.68338,53.5756
2601149,279.1302,270.7943,54.37797,53.55161
2601163,286.4938,270.5582,55.08128,53.52773
2601182,294.7593,270.1526,55.84233,53.48662
2601197,302.3523,269.5452,56.51616,53.42493
2601215,310.7209,268.7383,57.23206,53.34269
2601231,320.778,267.6978,58.05711,53.23618
2601248,331.7133,266.7487,58.91295,53.13856
2601265,342.7712,266.1128,59.73731,53.0729
2601282,352.1109,265.7257,60.4033,53.03284
2601297,363.4052,265.3354,61.17382,52.99236
2601314,373.7144,265.3125,61.84574,52.98999
2601332,381.3883,265.9218,62.32749,53.05314
2601348,389.7562,267.0021,62.83577,53.16467
2601365,397.2041,267.73,63.27386,53.23949
2601380,403.3774,268.946,63.62716,53.36389
2601396,410.3886,270.0615,64.01804,53.47738
2601413,417.9017,271.1193,64.42509,53.58445
2601430,424.1331,272.4237,64.75378,53.71573
2601450,429.5554,273.3133,65.03342,53.80479
2601464,435.0275,273.9963,65.30981,53.87292
2601480,439.2659,274.5314,65.51998,53.92614
2601497,443.7446,275.1314,65.73845,53.98564
2601516,446.049,275.6801,65.84943,54.03992
2601531,447.9098,276.3403,65.93835,54.10504
2601550,449.9714,276.9474,66.03616,54.16473
2601564,451.8211,277.5963,66.12328,54.22836
2601579,453.0792,278.2106,66.18219,54.2884
2601597,454.5836,278.8431,66.25228,54.35004
2601614,455.5542,279.019,66.29729,54.36716
2601631,456.7511,279.3032,66.35258,54.39477
2601648,457.7892,279.5928,66.40033,54.42288
2601665,458.5444,279.6842,66.43496,54.43174
2601681,459.0971,279.7119,66.46024,54.43443
2601698,459.2654,279.6697,66.46793,54.43033
2601714,459.1606,279.7965,66.46314,54.44262
2601733,459.0401,279.922,66.45763,54.45477
2601748,458.8453,280.0685,66.44873,54.46894
2601766,458.7513,280.1821,66.44444,54.47994
2601781,458.5697,280.1521,66.43612,54.47704
2601798,458.1992,280.2155,66.41914,54.48317
2601814,457.9467,280.1145,66.40756,54.4734
2601831,457.7177,279.9219,66.39705,54.45476
2601849,457.5468,279.8376,66.3892,54.44659
2601865,457.3981,279.8651,66.38236,54.44926
2601881,457.2298,279.8655,66.37463,54.4493
2601900,457.0521,279.8911,66.36645,54.45178
2601915,456.9357,279.756,66.36108,54.43869
2601932,456.8842,279.5936,66.35871,54.42295
2601949,456.9421,279.2044,66.36138,54.38518
2601964,456.8835,278.6176,66.35868,54.32809
2601983,456.7379,278.1839,66.35197,54.2858
2602000,456.6848,277.7928,66.34953,54.24759
2602014,456.709,277.4997,66.35064,54.21889
2602031,456.8018,277.3083,66.35491,54.20015
2602049,456.9022,277.1473,66.35954,54.18436
2602064,456.8746,276.897,66.35827,54.15978
2602081,456.7964,276.565,66.35467,54.12715
2602098,456.7698,276.2335,66.35344,54.09451
2602115,456.8967,275.8618,66.35928,54.05786
2602134,456.9122,275.5377,66.36,54.02585
2602149,456.998,275.3385,66.36395,54.00615
2602163,457.0571,275.1789,66.36668,53.99035
2602180,456.9816,275.0279,66.3632,53.9754
2602197,456.9087,274.7815,66.35984,53.95096
2602214,456.8089,274.5268,66.35524,53.92567
2602230,456.651,274.2821,66.34796,53.90136
2602247,456.3429,273.8382,66.33375,53.85717
2602267,456.1219,273.5471,66.32355,53.82813
2602281,456.0434,273.1252,66.31992,53.78599
2602297,455.9655,272.7358,66.31631,53.74702
2602313,455.7223,272.215,66.30507,53.69478
2602331,455.5797,271.9073,66.29847,53.66385
2602349,455.3286,271.7343,66.28684,53.64645
2602364,455.0674,271.6136,66.27473,53.6343
2602380,454.7386,271.3987,66.25948,53.61264
2602398,454.4,271.235,66.24374,53.59613
2602413,454.0399,271.1038,66.22699,53.58288
2602431,453.5316,271.0082,66.20331,53.57323
2602451,452.9264,270.9273,66.17505,53.56506
2602466,452.2698,270.6706,66.14432,53.5391
2602492,451.8123,270.4685,66.12286,53.51865
2602504,451.4432,270.2748,66.10552,53.49902
2602517,450.9842,270.0645,66.08394,53.47769
2602531,450.3151,269.9861,66.05239,53.46973
2602552,449.8466,269.8656,66.03026,53.4575
2602564,449.2238,269.7422,66.00078,53.44496
2602580,448.6662,269.6067,65.97433,53.43119
2602600,448.2739,269.4627,65.95568,53.41654
2602615,447.8621,269.4631,65.93608,53.41658
2602631,447.3249,269.5114,65.91047,53.4215
2602648,446.8401,269.545,65.88731,53.42491
2602666,446.4206,269.6484,65.86724,53.43543
2602686,445.9026,269.9485,65.84241,53.46591
2602703,445.5638,270.1813,65.82614,53.48954
2602716,444.997,270.4102,65.79889,53.51274
2602732,444.2427,270.6629,65.76252,53.53832
2602749,443.1731,270.7317,65.71078,53.54528
2602773,442.4208,270.6861,65.67426,53.54067
2602785,441.528,270.7134,65.63079,53.54343
2602805,440.5795,270.8593,65.58444,53.55818
2602827,440.0355,270.9001,65.55779,53.56231
2602837,438.9994,270.7332,65.50687,53.54543
2602857,438.6971,270.6554,65.49197,53.53756
2602865,438.0754,270.5356,65.46129,53.52544
2602883,437.5697,270.4833,65.43628,53.52014
2602900,437.1285,270.2534,65.41442,53.49685
2602917,436.5633,270.1207,65.38636,53.48339
2602933,436.0308,270.1093,65.35987,53.48224
2602950,435.7117,270.0279,65.34397,53.47398
2602966,435.4594,269.9339,65.33139,53.46443
2602983,435.2535,269.959,65.32111,53.46698
2603000,435.1385,270.1351,65.31536,53.48485
2603018,434.9381,270.19,65.30535,53.49042
2603037,434.6055,270.3411,65.2887,53.50574
2603050,434.2,270.6249,65.26839,53.53448
2603067,433.6929,270.7956,65.24294,53.55174
2603083,433.0316,270.9254,65.20967,53.56486
2603100,432.4861,270.8994,65.18217,53.56223
2603117,431.9206,270.9145,65.15359,53.56376
2603133,431.3501,271.0046,65.12471,53.57286
2603151,430.7847,271.0606,65.09602,53.57853
2603167,430.2042,271.0785,65.0665,53.58033
2603183,429.8012,271.1687,65.04596,53.58944
2603200,429.4085,271.1634,65.02592,53.5889
2603217,428.9394,271.2571,65.00195,53.59836
2603234,428.4208,271.3622,64.97539,53.60896
2603250,427.7611,271.3172,64.94153,53.60442
2603268,427.1544,271.1588,64.91031,53.58843
2603284,426.5971,270.9423,64.88158,53.56657
2603299,425.8586,270.959,64.8434,53.56825
2603316,424.9381,270.8886,64.79566,53.56115
2603333,423.6798,270.8531,64.73013,53.55756
2603350,422.4008,270.7389,64.66319,53.54601
2603366,420.9614,270.6365,64.58747,53.53565
2603383,418.9781,270.7022,64.48244,53.5423
2603399,416.6492,270.8312,64.35806,53.55535
2603416,413.5913,270.991,64.19302,53.57149
2603433,409.1919,270.8357,63.95208,53.5558
2603450,404.7763,270.5045,63.70602,53.52229
2603466,400.0396,270.1139,63.43722,53.4827
2603482,394.716,269.7176,63.12897,53.44246
2603499,389.8011,269.1736,62.83845,53.3871
2603515,383.9698,268.0808,62.48615,53.27546
2603534,379.0006,267.1575,62.17923,53.18067
2603552,374.0091,266.4222,61.86452,53.10487
2603569,369.0769,265.9726,61.54707,53.0584
2603587,364.3167,265.5693,61.23441,53.01663
2603602,358.9006,265.161,60.87094,52.97425
2603619,353.9534,264.5221,60.53155,52.90778
2603648,346.0769,263.302,59.97612,52.78028
2603659,342.628,262.7015,59.72689,52.71724
2603668,337.1564,261.8032,59.32373,52.62261
2603683,331.4785,261.0054,58.89501,52.53822
2603701,325.5984,260.2796,58.43953,52.46117
2603718,320.4693,259.4805,58.03234,52.37601
2603734,314.8582,258.6822,57.57602,52.29061
2603750,309.4006,257.6242,57.12092,52.17693
2603767,304.1386,256.5389,56.67128,52.0597
2603784,299.2395,255.3787,56.24278,51.9337
2603800,294.569,254.3586,55.82514,51.82233
2603816,289.6032,253.5937,55.37104,51.73845
2603833,283.8633,252.9884,54.83283,51.67186
2603855,280.2696,252.3989,54.4884,51.60682
2603869,276.554,251.6684,54.12608,51.52595
2603884,273.1807,250.809,53.79154,51.43046
2603900,270.2271,249.9639,53.49418,51.33615
2603916,267.7544,249.0343,53.24199,51.23197
2603933,265.4911,248.2643,53.00853,51.14532
2603949,263.5726,247.2646,52.80862,51.03233
2603970,261.7173,246.1666,52.61354,50.90759
