Time Stamp(ms),Intersection,,Angle,
,x,y,x,y
2677764,294.994,228.7875,55.86352,48.8409
2677780,295.1601,227.5016,55.8785,48.68082
2677797,295.237,226.1472,55.88543,48.5111
2677816,295.1632,225.0571,55.87878,48.37368
2677830,295.0127,223.9856,55.86521,48.23788
2677847,294.6815,223.0265,55.83531,48.11569
2677862,294.3098,222.1759,55.80169,48.00685
2677879,293.8575,221.4567,55.76072,47.91446
2677895,293.113,220.517,55.69308,47.79324
2677913,292.343,219.5725,55.62288,47.67084
2677931,291.4576,218.6967,55.54184,47.55681
2677946,290.2836,217.9573,55.43388,47.46017
2677964,289.174,217.3508,55.3313,47.38062
2677980,287.9048,216.8784,55.21329,47.3185
2677997,286.8981,216.3894,55.1192,47.25405
2678012,285.8355,215.7007,55.01939,47.16299
2678031,284.9352,214.9256,54.93445,47.06014
2678046,284.1365,214.0268,54.85878,46.94038
2678064,283.4087,213.2749,54.78958,46.83978
2678079,282.6455,212.5452,54.71677,46.74179
2678095,281.7836,211.7766,54.63422,46.63818
2678111,281.0244,210.8647,54.56123,46.51475
2678129,280.2861,209.6557,54.48999,46.35023
2678145,279.6928,208.631,54.43257,46.21001
2678162,279.012,207.602,54.36647,46.06847
2678181,278.2454,206.5289,54.2918,45.9201
2678196,277.3094,205.3501,54.20026,45.75619
2678215,276.0157,203.9439,54.07305,45.55939
2678230,274.6539,202.6428,53.9383,45.37606
2678248,273.3109,201.4824,53.80455,45.21156
2678263,271.5827,199.9446,53.63118,44.99206
2678281,269.9222,198.3002,53.46325,44.75549
2678296,268.3536,196.5796,53.30338,44.50586
2678311,266.2564,194.0801,53.08775,44.13937
2678332,264.3898,191.3949,52.89399,43.74052
2678344,262.4604,188.0198,52.69188,43.23154
2678360,260.5735,182.9904,52.4924,42.45701
2678377,258.9442,175.8067,52.31868,41.31655
2678400,258.2039,171.1165,52.2393,40.54971
2678410,257.9682,163.4933,52.21395,39.26485
2678426,257.4928,156.5391,52.16277,38.05013
2678443,256.89,149.9335,52.0977,36.8577
2678461,256.1393,144.6912,52.01638,35.88408
2678478,255.1293,139.8613,51.90653,34.96534
2678493,254.0278,134.8528,51.78609,33.99037
2678511,253.0165,131.1169,51.67496,33.24823
2678527,251.8083,127.2225,51.54147,32.46094
2678545,250.6847,123.2613,51.41661,31.6458
2678566,249.3835,119.2483,51.27117,30.80514
2678582,248.2087,115.297,51.13905,29.9628
2678598,246.9176,111.392,50.99298,29.11606
2678610,245.3173,106.7383,50.81064,28.08847
2678631,243.9833,103.2932,50.65756,27.3148
2678643,242.4502,99.82567,50.48038,26.52508
2678661,241.0807,96.67978,50.32098,25.79907
2678678,240.0855,94.35336,50.20446,25.25638
2678694,239.2772,92.10309,50.10941,24.7268
2678712,238.8914,90.19527,50.06392,24.27425
2678733,238.586,88.62343,50.02783,23.89895
2678748,238.6849,87.22853,50.03952,23.56407
2678761,238.7712,85.75194,50.04972,23.2077
2678778,238.8794,84.3486,50.0625,22.86724
2678797,238.981,83.1405,50.07449,22.57278
2678816,238.9796,81.88341,50.07432,22.26503
2678832,239.004,80.70517,50.0772,21.97535
2678845,239.0104,79.57381,50.07796,21.69608
2678867,238.9123,78.48842,50.06638,21.42713
2678882,238.7301,77.48146,50.04487,21.17673
2678894,238.3592,76.48106,50.00101,20.92712
2678911,237.9184,75.54005,49.94878,20.69156
2678928,237.4926,74.49414,49.89822,20.42889
2678950,237.0979,73.33931,49.85125,20.13781
2678963,236.7318,72.26178,49.80761,19.86524
2678978,236.3512,71.04257,49.76215,19.55569
2678997,235.9347,69.43198,49.71231,19.14495
2679016,235.6512,68.04883,49.67833,18.79057
2679032,235.395,66.67043,49.64758,18.43592
2679045,235.0395,65.20116,49.60485,18.05627
2679062,234.6044,63.55618,49.55244,17.62926
2679079,234.2388,61.91277,49.50832,17.20063
2679095,233.8497,59.84962,49.46128,16.65971
2679114,233.6157,57.91611,49.43294,16.14999
2679129,233.5078,55.94621,49.41986,15.62796
2679145,233.4674,54.05305,49.41496,15.12374
2679162,233.3848,52.44508,49.40495,14.69358
2679179,233.2046,50.94949,49.38308,14.29197
2679194,232.7276,49.48969,49.3251,13.89857
2679213,232.2786,48.08376,49.2704,13.51842
2679229,231.7248,46.71204,49.20277,13.14635
2679249,231.1414,45.5804,49.13131,12.83854
2679269,230.6886,44.6902,49.0757,12.59588
2679282,230.2121,43.87086,49.01706,12.37213
2679299,229.6508,43.12833,48.9478,12.16901
2679320,229.0636,42.33557,48.87514,11.95182
2679333,228.5348,41.70222,48.80952,11.77805
2679349,227.8488,41.16406,48.72414,11.63022
2679370,227.1668,40.80075,48.63897,11.53034
2679382,226.4049,40.64162,48.54348,11.48656
2679400,225.6429,40.56104,48.44762,11.46439
2679415,224.8178,40.56117,48.34341,11.46443
2679432,223.9263,40.68288,48.23034,11.49791
2679450,222.7361,40.98154,48.07859,11.58005
2679469,221.5204,41.15228,47.92265,11.62699
2679485,220.5492,41.38744,47.79741,11.6916
2679499,219.2002,41.798,47.62243,11.80434
2679518,217.9688,42.11952,47.46167,11.89257
2679532,216.5849,42.56425,47.27983,12.01451
2679549,215.4437,42.88211,47.12893,12.1016
2679565,214.3482,43.18449,46.98327,12.18439
2679581,213.3165,43.52235,46.84535,12.27683
2679598,212.419,43.99564,46.7248,12.40623
2679613,211.3259,44.87924,46.57725,12.64745
2679636,210.6842,45.69142,46.49025,12.86878
2679649,209.969,46.65784,46.39296,13.13162
2679667,209.2677,47.59424,46.29722,13.38577
2679681,208.5318,48.47435,46.1964,13.62415
2679701,208.0274,49.51849,46.12707,13.90634
2679717,207.6207,50.54243,46.07106,14.18241
2679734,207.5104,51.67206,46.05584,14.48618
2679747,207.6886,52.84171,46.08041,14.79985
2679764,207.7479,53.65198,46.08859,15.01661
2679780,207.9675,54.23138,46.11882,15.17134
2679796,208.4958,54.66324,46.19145,15.28652
2679815,209.054,55.0943,46.26798,15.40136
2679831,209.5827,55.46605,46.34026,15.5003
2679847,210.0312,55.92856,46.40143,15.62327
2679864,210.2383,56.77139,46.42963,15.84696
2679880,210.3976,58.56165,46.45131,16.32047
2679898,210.6341,60.88837,46.48344,16.93244
2679915,210.7982,63.64261,46.50573,17.65175
2679931,210.7662,67.05428,46.50138,18.53483
2679948,210.6132,70.04735,46.48061,19.30213
2679965,210.4027,73.04709,46.452,20.06399
2679981,209.955,76.50217,46.39104,20.93239
2679998,209.6108,79.54065,46.3441,21.68788
2680013,209.0886,83.13002,46.27272,22.57022
2680031,208.705,86.07164,46.22015,23.28502
2680047,208.3483,89.23514,46.1712,24.04527
2680064,208.1358,92.3725,46.14198,24.79044
2680081,208.0272,95.53639,46.12705,25.53296
2680098,208.1883,98.51231,46.1492,26.22309
2680117,208.4012,101.4816,46.17846,26.9036
2680132,208.765,104.3571,46.22838,27.55491
2680149,209.3293,107.1636,46.30564,28.1832
2680165,209.8314,110.0596,46.37419,28.8239
2680186,210.31,112.8079,46.43939,29.42471
2680198,210.7024,115.937,46.49272,30.10024
2680215,211.0716,119.4755,46.5428,30.85316
2680232,211.37,122.972,46.58321,31.58569
2680248,211.6452,127.1861,46.62044,32.45353
2680269,212.0125,131.9932,46.67003,33.42346
2680286,212.4467,136.8964,46.72853,34.39094
2680301,213.0243,141.8852,46.80617,35.35287
2680317,213.7855,148.1617,46.90813,36.53137
2680332,214.6148,154.2601,47.01879,37.64302
2680349,215.5044,160.6248,47.13699,38.76879
2680366,216.4804,167.454,47.26605,39.93843
2680381,217.5612,175.4876,47.40825,41.26494
2680399,218.5914,183.0182,47.54308,42.46136
2680416,219.7223,190.9055,47.69028,43.66724
2680432,220.6289,197.5424,47.8077,44.64581
2680448,221.5552,204.1377,47.92713,45.58659
2680465,222.3039,209.4804,48.02326,46.32629
2680483,222.9884,214.1653,48.11083,46.95887
2680498,223.3698,217.3058,48.15949,47.37471
2680518,223.8143,221.1293,48.21609,47.87229
2680535,223.9468,223.362,48.23294,48.15849
2680548,224.0414,226.1772,48.24496,48.51487
2680565,224.1889,229.4432,48.26369,48.92214
2680582,224.3536,232.7635,48.2846,49.32946
2680598,224.6175,236.1139,48.31805,49.73377
2680616,224.8837,239.0571,48.35175,50.08347
2680632,225.1032,242.0541,48.37951,50.43438
2680649,225.2952,245.1231,48.40376,50.78842
2680665,225.4801,248.042,48.42709,51.12024
2680682,225.5058,250.8346,48.43034,51.43331
2680699,225.4321,252.892,48.42104,51.66124
2680715,225.3172,255.0199,48.40654,51.89459
2680732,225.2663,256.8209,48.40011,52.09023
2680749,225.2777,258.287,48.40155,52.24822
2680765,225.5397,258.8628,48.43461,52.30997
2680782,226.0093,259.3818,48.49376,52.36547
2680800,226.6435,259.535,48.57343,52.38184
2680815,227.6398,259.8774,48.69808,52.41835
2680836,228.313,260.2557,48.78196,52.45862
2680848,229.0097,260.897,48.86845,52.52673
2680869,229.5805,261.4886,48.93911,52.58937
2680888,229.9672,262.0601,48.98686,52.64972
2680904,230.1856,262.4274,49.0138,52.68841
2680921,230.3015,262.6492,49.02807,52.71174
2680937,230.3307,262.7618,49.03167,52.72358
2680954,230.2682,262.8562,49.02397,52.7335
2680971,230.2036,263.0416,49.01602,52.75296
2680987,230.0278,263.3875,48.99434,52.78923
2681005,229.8133,263.6305,48.96788,52.81467
2681020,229.5571,263.6984,48.93622,52.82178
2681036,229.0397,263.6291,48.87218,52.81453
2681056,228.7345,263.5708,48.83432,52.80843
2681070,228.2816,263.3134,48.77805,52.78147
2681085,227.778,262.9636,48.71532,52.74477
2681104,227.3236,262.6155,48.65858,52.7082
2681120,226.8401,262.1528,48.59808,52.65949
2681137,226.3661,261.8083,48.53861,52.62315
2681154,225.9553,261.4676,48.48697,52.58715
2681169,225.5769,261.1141,48.4393,52.54974
2681188,225.2161,260.7398,48.39378,52.51006
2681203,224.8272,260.2967,48.34461,52.46299
2681219,224.5093,259.9929,48.30434,52.43065
2681237,225.1103,260.354,48.3804,52.46908
2681252,225.0316,260.1358,48.37046,52.44586
2681269,224.9738,260.0489,48.36315,52.43661
2681284,224.9718,259.9274,48.36289,52.42368
2681300,224.9337,259.9667,48.35807,52.42786
2681318,224.9548,260.0194,48.36074,52.43347
2681336,225.0146,260.0494,48.36831,52.43666
2681352,225.0408,260.0943,48.37162,52.44144
2681371,225.1047,260.1445,48.3797,52.44679
2681386,225.1758,260.1981,48.38868,52.45249
2681401,225.239,260.2699,48.39667,52.46013
2681419,225.3389,260.3231,48.40928,52.46579
2681434,225.5192,260.5335,48.43203,52.48815
2681454,225.6505,260.758,48.44858,52.51199
2681471,225.8505,260.9617,48.47377,52.53359
2681489,225.9982,261.0921,48.49236,52.54741
2681503,226.1449,261.2626,48.51081,52.56546
2681522,226.2927,261.4858,48.52939,52.58908
2681538,226.4237,261.6381,48.54585,52.60518
2681551,226.5332,261.7321,48.55959,52.6151
2681569,226.6225,261.844,48.57079,52.62692
2681586,226.6877,261.8962,48.57897,52.63243
2681605,226.7732,261.8943,48.58969,52.63223
2681621,226.8367,261.9855,48.59765,52.64185
2681638,226.9387,262.0245,48.61042,52.64597
2681653,227.0486,261.9485,48.62419,52.63794
2681670,227.2157,261.8487,48.64509,52.62741
2681688,227.3475,261.7356,48.66156,52.61547
2681703,227.5498,261.5163,48.68684,52.5923
2681718,227.7777,261.3663,48.71528,52.57644
2681734,228.0927,261.1099,48.75454,52.54929
2681753,228.4198,260.6683,48.79523,52.50246
2681772,228.7275,260.2739,48.83345,52.46056
2681785,229.0957,259.8268,48.87912,52.41296
2681802,229.4436,259.3033,48.92218,52.35708
2681818,229.8584,258.8609,48.97344,52.30976
2681835,230.3844,258.4984,49.03828,52.27091
2681860,230.6537,258.3662,49.07141,52.25673
2681872,231.2353,258.0434,49.14283,52.22205
2681889,231.7871,257.785,49.21038,52.19425
2681903,232.3971,257.502,49.28485,52.16376
2681919,233.0996,257.4388,49.37033,52.15695
2681935,233.8727,257.4315,49.46406,52.15616
2681953,234.5741,257.4843,49.54879,52.16186
2681969,235.4252,257.6436,49.6512,52.17902
2681990,236.1227,257.7333,49.73482,52.18868
2682002,236.8639,257.7051,49.82336,52.18565
2682019,237.5324,257.6573,49.90294,52.1805
2682035,238.2338,257.576,49.98615,52.17174
2682051,238.8755,257.5944,50.06203,52.17372
2682069,239.5265,257.5497,50.13877,52.1689
2682087,240.1466,257.4285,50.21164,52.15583
2682102,240.7228,257.412,50.27914,52.15406
2682119,241.2026,257.3857,50.33521,52.15123
2682135,241.7093,257.3369,50.39428,52.14597
2682152,242.1994,257.2589,50.45126,52.13754
2682169,242.6496,257.2323,50.50351,52.13467
2682187,243.0165,257.0006,50.54598,52.10965
2682203,243.2794,256.6969,50.57638,52.07681
2682219,243.4141,256.1358,50.59193,52.01601
2682236,243.4485,255.3158,50.59591,51.92685
2682256,242.9954,254.1512,50.54354,51.79963
2682271,242.6451,253.2827,50.50297,51.70427
2682287,241.8138,252.4091,50.40644,51.60794
2682305,241.0249,251.9208,50.31446,51.55393
2682322,240.3432,251.513,50.2347,51.50871
2682338,239.7195,251.194,50.16147,51.47329
2682354,238.7878,250.6646,50.05168,51.41438
2682378,238.1806,250.3058,49.97985,51.37435
2682389,237.7457,249.8384,49.92828,51.32212
2682412,237.4038,249.2995,49.88765,51.26175
2682426,237.3393,248.942,49.87998,51.22161
2682439,237.4165,248.6302,49.88917,51.18654
2682456,237.6657,248.2999,49.91878,51.14934
2682474,238.0994,248.1201,49.97024,51.12906
2682491,238.8467,247.9243,50.05864,51.10696
2682507,239.4952,247.7999,50.13508,51.09291
2682523,240.3409,247.6884,50.23442,51.0803
2682540,241.0966,247.7031,50.32284,51.08197
2682553,241.9315,247.8939,50.42014,51.10353
2682571,242.9069,248.0668,50.5333,51.12305
2682593,243.8215,248.3573,50.63892,51.15581
2682608,244.5035,248.5722,50.71738,51.18001
2682621,245.2848,248.678,50.80693,51.19193
2682647,246.0931,248.5888,50.89922,51.18188
2682658,246.6517,248.5992,50.96278,51.18304
2682672,247.1725,248.5787,51.0219,51.18074
2682689,247.6976,248.511,51.08134,51.17312
2682709,247.9183,248.2062,51.10628,51.13877
2682724,248.0137,247.862,51.11705,51.09992
2682739,247.6885,247.1192,51.08031,51.01586
2682757,247.2041,246.4357,51.02548,50.93823
2682776,246.5616,245.8195,50.95255,50.86802
2682790,245.8235,245.1797,50.86847,50.79491
2682805,244.8464,244.7493,50.75672,50.74559
2682821,244.042,244.5346,50.66432,50.72095
2682838,243.2979,244.4481,50.57851,50.71101
2682854,242.607,244.3332,50.49857,50.69781
2682873,242.2082,244.3016,50.45229,50.69418
2682891,241.927,244.197,50.41961,50.68215
2682905,241.7147,244.1008,50.3949,50.67109
2682922,241.77,243.7023,50.40134,50.62518
2682938,241.7807,243.3821,50.40258,50.58824
2682957,242.0069,243.0029,50.42889,50.54441
2682974,242.1589,242.8491,50.44656,50.52661
2682990,242.2991,242.5285,50.46285,50.48947
2683005,242.4364,242.147,50.47878,50.44518
2683023,242.4414,241.9922,50.47935,50.42719
2683039,242.4904,241.8139,50.48505,50.40645
2683055,242.5629,241.5089,50.49345,50.37093
2683073,242.6436,241.3788,50.5028,50.35577
2683089,242.7087,241.0828,50.51035,50.32122
2683106,242.78,240.8078,50.5186,50.28908
2683121,242.8538,240.4789,50.52715,50.25059
2683141,242.9213,240.0569,50.53497,50.20111
2683158,243.0329,239.8224,50.54787,50.17356
2683171,243.2696,239.5446,50.57524,50.1409
2683189,243.4268,239.3836,50.5934,50.12195
2683204,243.689,239.1902,50.62365,50.09916
2683226,243.9613,238.9047,50.65502,50.06548
2683241,244.1973,238.5035,50.68219,50.01808
2683257,244.4588,238.0343,50.71225,49.96252
2683269,244.8332,237.5488,50.75521,49.9049
2683287,245.149,237.2117,50.79139,49.8648
2683304,245.4456,236.7271,50.82533,49.80705
2683322,245.7004,236.086,50.85442,49.73044
2683338,245.8552,235.3143,50.87209,49.63789
2683356,245.8277,234.5028,50.86896,49.54019
2683372,245.6572,233.6316,50.8495,49.43487
2683389,245.4257,232.9016,50.82304,49.34626
2683411,245.0789,232.2166,50.78337,49.26284
2683423,244.6654,231.3595,50.73597,49.15804
2683439,244.2276,230.7586,50.68567,49.08431
2683457,243.6124,230.0614,50.61482,48.99849
2683473,243.0463,229.4995,50.54943,48.9291
2683493,242.2719,228.7891,50.45968,48.84109
2683511,241.7033,227.9854,50.39358,48.74117
2683525,241.0447,227.2969,50.31677,48.65525
2683543,240.2759,226.498,50.2268,48.55518
2683558,239.5086,225.7479,50.13666,48.46085
2683573,238.6289,224.8323,50.03291,48.34525
2683590,237.6467,223.6487,49.91652,48.19501
2683606,236.588,222.6765,49.79044,48.07096
2683623,235.5118,221.6876,49.66161,47.94416
2683641,234.3255,220.4649,49.51879,47.7865
2683655,233.2572,219.3759,49.38947,47.64529
2683675,232.1135,218.4126,49.25026,47.51973
2683689,230.8553,217.6021,49.0962,47.41362
2683706,229.6011,216.7414,48.94165,47.30046
2683727,228.5001,216.0141,48.80521,47.20447
2683742,227.4797,215.3317,48.67809,47.11407
2683758,226.5631,214.6941,48.56334,47.02934
2683774,225.7613,214.1545,48.46255,46.95743
2683788,225.0898,213.4336,48.37781,46.86104
2683805,224.3966,212.6601,48.29005,46.75724
2683821,223.8945,211.8848,48.22628,46.65279
2683838,223.4662,211.4254,48.17178,46.59071
2683854,223.3457,210.9339,48.15642,46.52414
2683876,223.4576,210.4763,48.17068,46.462
2683896,223.5848,210.0847,48.18688,46.40873
2683916,224.3031,209.5606,48.27819,46.33725
2683930,224.8389,209.3377,48.34608,46.30679
2683950,225.4944,209.0304,48.42889,46.26475
2683959,226.1566,208.9346,48.51228,46.25162
2683976,226.9002,209.0753,48.60561,46.27089
2683989,227.6721,209.2442,48.70211,46.29401
2684006,228.562,209.5127,48.8129,46.33071
2684023,229.5175,209.9734,48.93132,46.39355
2684040,230.3099,210.2675,49.02911,46.43361
2684056,231.2241,210.5968,49.14145,46.47839
2684073,231.9813,210.7488,49.23411,46.49902
2684090,232.6716,210.8285,49.31829,46.50983
2684106,233.3586,210.9295,49.40177,46.52353
2684124,233.9414,210.8304,49.47237,46.5101
2684142,234.3582,210.6397,49.52274,46.48421
2684156,234.7053,210.3683,49.56461,46.44731
2684170,235.142,210.0099,49.61718,46.39853
2684190,235.694,209.8821,49.68347,46.38111
2684207,236.3037,209.8182,49.75648,46.3724
2684224,237.185,209.5865,49.86161,46.34079
2684242,238.1275,209.4176,49.97357,46.31771
2684259,238.9586,209.3424,50.07185,46.30743
2684274,239.8622,209.3758,50.17825,46.312
2684291,240.8433,209.3739,50.29323,46.31174
2684307,242.1025,209.3995,50.44001,46.31524
2684324,243.2863,209.4723,50.57717,46.32518
2684339,244.5112,209.673,50.71827,46.35259
2684354,245.8491,210.0843,50.8714,46.40866
2684374,246.9097,210.3898,50.99209,46.45024
2684388,248.1494,210.832,51.13236,46.5103
2684404,249.3727,211.2875,51.26996,46.57204
2684421,250.4448,211.6764,51.38987,46.62465
2684438,251.5627,212.2218,51.51423,46.69825
2684455,252.9365,212.7934,51.66615,46.77515
2684472,254.2802,213.4254,51.81376,46.85994
2684491,255.4967,213.9374,51.94655,46.92844
2684505,256.6132,214.3552,52.06775,46.9842
2684522,257.577,214.8213,52.17185,47.04627
2684538,258.5857,215.3836,52.28027,47.12096
2684559,259.5014,215.9031,52.37824,47.18978
2684572,260.4058,216.4589,52.47458,47.26321
2684589,261.151,216.7492,52.55364,47.30148
2684605,261.6967,216.7866,52.61137,47.30642
2684621,262.4015,216.8638,52.68568,47.31658
2684640,263.0134,216.9187,52.75,47.32381
2684656,263.5905,216.9189,52.8105,47.32384
2684676,264.0737,217.1065,52.86102,47.34852
2684689,264.4182,217.3797,52.89695,47.38443
2684705,264.7025,217.7785,52.92658,47.43674
2684725,264.9041,218.1017,52.94755,47.47908
2684739,265.1579,218.3642,52.97394,47.51339
2684755,265.3987,218.774,52.99893,47.56691
2684773,265.5502,218.817,53.01465,47.57251
2684789,265.706,218.622,53.0308,47.54707
2684805,265.9775,218.6654,53.05891,47.55273
2684821,266.3085,218.504,53.09314,47.53166
2684843,266.5649,218.2491,53.11961,47.49835
2684856,266.7915,218.0751,53.14297,47.47559
2684872,267.0444,217.8221,53.16902,47.44246
2684890,267.169,217.7141,53.18185,47.4283
2684906,267.2223,217.551,53.18733,47.40691
2684922,267.1039,217.3667,53.17515,47.38272
2684940,267.0688,217.117,53.17153,47.3499
2684955,266.9567,216.972,53.16,47.33083
2684973,266.8215,216.6588,53.14606,47.28958
2684995,266.5989,216.5071,53.12311,47.26957
2685013,266.3574,216.4489,53.09818,47.26189
2685026,266.1326,216.3385,53.07495,47.24732
2685040,265.7762,216.0816,53.03807,47.21339
2685056,265.4771,215.8129,53.00707,47.17784
2685072,265.1837,215.5009,52.97662,47.13652
2685089,264.8655,215.3927,52.94353,47.12217
2685105,264.5381,215.2361,52.90945,47.10138
2685123,264.1792,215.178,52.87202,47.09368
2685140,263.9007,215.0998,52.84293,47.08329
2685155,263.5078,215.0732,52.80184,47.07976
2685173,263.2237,214.9482,52.77207,47.06315
2685190,262.8889,214.7314,52.73693,47.03432
2685206,262.6265,214.8585,52.70936,47.05122
2685223,262.2712,214.8874,52.67197,47.05506
2685246,262.0513,215.1143,52.64879,47.08522
2685257,261.8093,215.3029,52.62326,47.11026
2685272,261.5009,215.3327,52.59068,47.1142
2685289,261.2446,215.6096,52.56356,47.15092
2685307,261.032,215.8032,52.54104,47.17656
2685322,260.7687,216.0061,52.51312,47.2034
2685340,260.5159,216.1876,52.48629,47.22739
2685359,260.2011,216.2141,52.45281,47.23089
2685373,259.9193,216.2421,52.42281,47.2346
