Time Stamp(ms),Intersection,,Angle,
,x,y,x,y
1322132,321.1967,246.3653,58.09066,50.93022
1322154,321.038,246.3854,58.07795,50.93251
1322178,320.9704,246.3607,58.07254,50.9297
1322202,320.9566,246.4949,58.07143,50.94496
1322228,320.9653,246.2803,58.07212,50.92055
1322250,320.9432,246.0483,58.07036,50.89412
1322277,320.9054,246.0778,58.06733,50.89747
1322299,320.8821,245.8149,58.06546,50.86749
1322319,320.8394,245.6655,58.06204,50.85044
1322341,320.8422,245.3516,58.06226,50.81458
1322367,320.8705,245.1018,58.06453,50.78599
1322391,320.9372,244.7939,58.06988,50.7507
1322414,320.7161,244.7128,58.05215,50.7414
1322438,320.0321,245.121,57.9972,50.78818
1322458,319.3773,245.2561,57.94444,50.80365
1322482,318.6767,245.0727,57.88781,50.78265
1322505,317.9522,244.8819,57.82907,50.7608
1322529,317.0815,244.1633,57.75821,50.67828
1322554,316.275,243.5473,57.69233,50.6073
1322575,315.5617,242.5963,57.63387,50.49733
1322601,314.7348,241.7399,57.56586,50.39784
1322623,314.0055,241.1794,57.50566,50.3325
1322646,313.131,240.7948,57.43321,50.28757
1322672,312.0209,240.491,57.34083,50.252
1322693,310.5177,240.1345,57.21499,50.21022
1322717,308.45,239.9897,57.04049,50.19323
1322740,305.8432,239.9467,56.81813,50.18817
1322767,302.3521,239.9407,56.51614,50.18747
1322800,298.1094,239.5776,56.14256,50.14478
1322817,293.4802,238.9465,55.72647,50.07042
1322839,289.6306,238.3363,55.37357,49.99829
1322861,284.7624,237.7164,54.9181,49.9248
1322886,280.0173,237.4613,54.464,49.8945
1322907,274.9775,237.0705,53.97039,49.84798
1322933,269.8047,236.4195,53.45132,49.77032
1322954,264.5322,235.9024,52.90884,49.70845
1322977,259.051,235.4979,52.33011,49.65993
1323003,253.7178,234.8356,51.75209,49.5803
1323026,247.9824,234.4694,51.11352,49.53616
1323052,242.9973,234.4281,50.54377,49.53117
1323073,237.419,234.5301,49.88946,49.54349
1323097,231.5439,234.6028,49.18063,49.55226
1323121,227.1666,234.3857,48.63895,49.52606
1323144,223.037,234.3098,48.11703,49.5169
1323169,219.1347,234.137,47.6139,49.49602
1323190,215.2023,234.0858,47.0969,49.48983
1323216,211.7546,234.5689,46.63522,49.54816
1323240,209.0006,234.8301,46.26067,49.57964
1323262,206.0862,235.2668,45.85865,49.63219
1323289,203.8271,235.4676,45.54299,49.6563
1323310,201.5052,235.5887,45.21479,49.67084
1323338,199.2151,235.6974,44.88736,49.68387
1323363,197.7752,235.6843,44.67954,49.6823
1323383,196.0347,235.6593,44.42634,49.67931
1323405,194.8276,235.5433,44.24945,49.66539
1323432,193.9525,235.3062,44.12054,49.63691
1323452,193.7811,235.3091,44.09521,49.63727
1323475,193.7307,235.1069,44.08776,49.61296
1323497,193.8937,234.9452,44.11185,49.5935
1323521,194.5791,234.8843,44.2129,49.58616
1323547,195.3777,234.8341,44.33019,49.58012
1323569,196.3226,234.9631,44.46838,49.59565
1323590,197.304,234.7701,44.61121,49.57242
1323615,198.2735,234.6297,44.75163,49.55549
1323638,199.3715,234.5221,44.90983,49.54252
1323666,200.3673,234.2817,45.05257,49.5135
1323695,201.4173,234.0796,45.20229,49.48908
1323709,202.392,234.0056,45.34058,49.48014
1323734,203.5301,233.8967,45.50121,49.46696
1323756,204.5592,233.8303,45.64568,49.45893
1323781,205.482,233.7755,45.77457,49.45229
1323807,206.2029,233.7795,45.87487,49.45278
1323829,206.9773,233.7399,45.98219,49.44798
1323853,207.7584,233.5838,46.09003,49.42907
1323873,208.3849,233.6354,46.17623,49.43533
1323902,208.908,233.4725,46.24798,49.41558
1323927,209.1671,233.2781,46.28346,49.392
1323944,209.4286,232.9334,46.31922,49.35013
1323978,209.5733,232.6378,46.33898,49.31417
1323995,209.5152,232.4996,46.33104,49.29734
1324018,209.3529,232.3204,46.30887,49.2755
1324041,209.0007,232.0161,46.26067,49.23836
1324066,208.6263,231.7782,46.20936,49.20929
1324090,208.3727,231.4593,46.17454,49.17027
1324111,208.1039,231.349,46.1376,49.15675
1324136,207.8691,231.0657,46.10528,49.12202
1324158,207.7646,230.8976,46.09088,49.10139
1324181,207.7656,230.8807,46.09102,49.09932
1324207,207.8773,230.5981,46.10641,49.06458
1324229,207.9352,230.3439,46.11438,49.03329
1324253,207.9981,229.9328,46.12304,48.98262
1324276,208.1399,229.6291,46.14254,48.94512
1324299,208.298,229.5576,46.16429,48.93628
1324323,208.3731,229.46,46.17461,48.92422
1324347,208.4395,229.3707,46.18373,48.91316
1324371,208.3459,229.2907,46.17086,48.90327
1324393,208.2849,229.1881,46.16248,48.89057
1324414,208.2316,229.0927,46.15516,48.87874
1324439,208.2398,228.8842,46.15628,48.8529
1324466,208.3125,228.8634,46.16627,48.85032
1324489,208.3136,228.712,46.16642,48.83153
1324510,208.4381,228.445,46.18353,48.79836
1324534,208.6195,228.4353,46.20843,48.79715
1324558,208.7079,228.3732,46.22055,48.78944
1324580,208.6784,228.2306,46.21651,48.7717
1324602,208.4714,228.0182,46.18811,48.74525
1324626,208.2292,227.9761,46.15483,48.74001
1324653,208.0989,227.9344,46.13691,48.73482
1324675,207.9883,227.9041,46.1217,48.73103
1324700,207.9168,227.9442,46.11185,48.73603
1324723,207.8728,227.8478,46.1058,48.72402
1324742,207.8508,227.787,46.10276,48.71644
1324767,207.8108,227.622,46.09725,48.69585
1324791,207.7146,227.4878,46.08399,48.6791
1324812,207.703,227.4086,46.08239,48.6692
1324838,207.7013,227.4988,46.08217,48.68047
1324860,207.8287,227.4308,46.09972,48.67198
1324886,207.9629,227.3397,46.1182,48.6606
1324909,208.2241,227.2702,46.15413,48.65191
1324931,208.7047,227.3161,46.22011,48.65765
1324956,209.4516,227.1998,46.32236,48.6431
1324979,210.3117,227.2357,46.43962,48.6476
1325002,211.6416,227.3058,46.61995,48.65636
1325026,213.0489,227.1785,46.80947,48.64044
1325049,214.2253,227.0175,46.96687,48.6203
1325074,215.7102,227.2853,47.16424,48.6538
1325095,216.9409,227.5665,47.32673,48.68892
1325117,218.0879,227.9167,47.47726,48.73261
1325143,218.7251,228.4796,47.56052,48.80267
1325166,219.2292,229.2506,47.6262,48.8983
1325191,219.7176,229.7359,47.68968,48.95831
1325213,219.7345,229.5807,47.69187,48.93914
1325237,219.5699,229.8265,47.6705,48.9695
1325260,219.0433,230.3532,47.602,49.03445
1325283,218.6283,230.5517,47.54789,49.05888
1325307,218.1237,230.6146,47.48195,49.06661
1325332,217.8049,230.9366,47.4402,49.10617
1325354,217.7671,231.4622,47.43525,49.17062
1325377,217.8648,231.8158,47.44806,49.21389
1325399,217.7852,232.1656,47.43762,49.25662
1325425,217.7653,232.7054,47.43501,49.3224
1325448,217.6358,233.3021,47.41804,49.39492
1325471,217.3252,234.0974,47.37726,49.49123
1325495,217.0504,234.6003,47.34114,49.55195
1325516,216.8757,234.9491,47.31815,49.59397
1325534,216.8006,235.1655,47.30825,49.62
1325555,216.7044,235.5088,47.29558,49.66125
1325575,216.6382,235.7496,47.28687,49.69014
1325595,216.5827,236.1056,47.27954,49.73278
1325613,216.6245,236.3884,47.28505,49.7666
1325631,216.7039,236.4566,47.29552,49.77475
1325653,216.8,236.5349,47.30819,49.7841
1325672,217.0871,236.6006,47.34596,49.79195
1325700,217.3549,236.736,47.38116,49.80811
1325716,217.5677,236.649,47.40909,49.79773
1325733,217.9317,236.7969,47.45682,49.81537
1325760,218.3139,236.731,47.50683,49.80752
1325781,218.726,236.8529,47.56063,49.82206
1325808,219.1312,236.8345,47.61344,49.81985
1325830,219.3898,236.9859,47.64709,49.83791
1325853,219.6832,237.0555,47.68521,49.8462
1325879,219.0893,237.563,47.60799,49.90658
1325899,219.1514,237.7836,47.61607,49.93277
1325924,219.2078,237.9191,47.62341,49.94886
1325948,219.3114,237.9589,47.6369,49.95358
1325970,219.5654,237.9406,47.66992,49.9514
1325995,220.118,238.0314,47.7416,49.96217
1326017,220.9599,238.2852,47.85045,49.99225
1326043,222.2617,238.4085,48.01785,50.00684
1326066,223.6967,238.5705,48.20113,50.026
1326088,226.2928,238.6843,48.52941,50.03946
1326115,228.106,238.8508,48.7562,50.05912
1326136,230.1966,239.1629,49.01515,50.09594
1326159,233.3982,239.6365,49.40657,50.15171
1326181,237.6469,240.2193,49.91655,50.22016
1326206,242.6678,240.7225,50.50561,50.27911
1326231,250.8115,241.2958,51.43074,50.34609
1326254,258.403,241.6264,52.26067,50.38463
1326281,266.8186,241.9327,53.14577,50.42027
1326298,272.7142,242.0505,53.74485,50.43397
1326314,278.841,242.0027,54.34985,50.42841
1326337,284.5822,242.0554,54.90104,50.43454
1326356,290.8062,242.1301,55.48201,50.44322
1326378,297.2064,241.9581,56.06208,50.42323
1326397,303.3005,241.7348,56.59866,50.39725
1326414,309.4161,241.4204,57.12223,50.36062
1326434,315.0858,241.2513,57.59476,50.34089
1326455,320.3742,241.0634,58.0247,50.31895
1326476,325.8505,241.1615,58.4593,50.33041
1326498,330.3122,241.3887,58.8056,50.35693
1326517,334.5399,241.4852,59.1275,50.36816
1326542,338.7284,241.4262,59.44054,50.36129
1326566,342.3922,241.3439,59.70971,50.3517
1326589,346.3482,241.2877,59.99556,50.34514
1326613,349.5316,241.3996,60.22205,50.35819
1326635,353.007,241.5874,60.4658,50.38007
1326660,356.7503,241.7562,60.7243,50.39974
1326682,360.0398,241.853,60.94808,50.411
1326711,363.0331,241.9146,61.14902,50.41817
1326731,365.3593,242.0801,61.30342,50.4374
1326755,367.2541,242.4661,61.42808,50.48222
1326778,368.888,242.8136,61.53478,50.5225
1326801,370.4192,243.0289,61.63411,50.54742
1326826,372.1818,243.4434,61.74767,50.59531
1326850,373.7014,244.1521,61.8449,50.67698
1326873,375.7271,244.8341,61.97358,50.75531
1326898,377.45,245.4758,62.08216,50.82877
1326919,378.9326,245.8084,62.17498,50.86676
1326945,380.4378,245.9514,62.26864,50.88307
1326967,381.7216,246.1317,62.34807,50.90361
1326991,382.9063,246.3118,62.42099,50.92412
1327014,384.1031,246.3991,62.4943,50.93406
1327036,385.058,246.5491,62.55253,50.95113
1327060,385.9482,246.8136,62.60662,50.98118
1327084,386.6465,246.848,62.6489,50.98508
1327110,387.1042,246.8572,62.67656,50.98613
1327133,387.6241,246.6773,62.70791,50.9657
1327156,388.09,246.6754,62.73594,50.96548
1327180,388.738,246.6032,62.77485,50.95728
1327204,389.2622,246.7967,62.80624,50.97926
1327225,389.968,247.0415,62.84841,51.00704
1327250,390.8284,247.0851,62.89965,51.01199
1327270,391.9421,247.0249,62.96571,51.00516
1327296,393.2034,246.7382,63.04017,50.97262
1327318,394.5139,246.4828,63.11714,50.94359
1327343,396.0876,246.0042,63.20902,50.88908
1327367,397.6918,245.5412,63.30209,50.83624
1327391,399.4577,245.0194,63.40384,50.77654
1327414,401.1719,244.2527,63.50193,50.68855
1327437,402.963,243.6022,63.60372,50.61364
1327461,404.8654,242.7885,63.71103,50.51959
1327484,406.6153,242.0341,63.80902,50.43206
1327509,408.5182,241.0557,63.91482,50.31805
1327533,410.3333,240.1773,64.015,50.21523
1327559,412.0371,239.343,64.10838,50.11716
1327579,413.8168,238.4216,64.20526,50.00839
1327602,415.502,237.4575,64.29637,49.89404
1327626,417.3972,236.0069,64.39813,49.72097
1327655,418.7927,234.8133,64.47257,49.57761
1327676,420.4815,233.1713,64.56213,49.37904
1327699,422.4167,231.4658,64.66403,49.17106
1327720,424.2677,230.0265,64.76079,48.99418
1327745,426.5909,228.5589,64.88125,48.81252
1327769,428.6729,227.5133,64.9883,48.68228
1327797,431.1761,226.0627,65.11588,48.50048
1327822,433.002,224.871,65.20818,48.35015
1327842,434.6474,223.658,65.2908,48.1962
1327863,436.2007,222.4623,65.36833,48.04354
1327888,437.4687,221.131,65.43127,47.87251
1327913,438.5749,219.9765,65.48595,47.72327
1327933,439.3332,218.9616,65.52329,47.59136
1327955,440.0593,217.8833,65.55895,47.45047
1327981,440.7871,216.7072,65.5946,47.29595
1328003,441.2787,215.6616,65.61862,47.15781
1328029,441.8231,214.3569,65.64517,46.98443
1328050,442.3206,213.1556,65.66939,46.82378
1328074,442.8828,211.7636,65.69669,46.63643
1328099,443.332,210.4701,65.71848,46.46116
1328119,443.7938,209.1451,65.74083,46.28045
1328150,444.4089,207.6758,65.77054,46.07865
1328168,445.0699,206.3642,65.80239,45.89725
1328193,445.5678,205.4288,65.82634,45.76715
1328217,445.9206,204.6856,65.84327,45.66336
1328236,446.1967,203.8887,65.85651,45.55163
1328259,446.4235,203.1338,65.86738,45.44539
1328287,446.608,202.3142,65.87621,45.32957
1328312,446.7867,201.4008,65.88476,45.19994
1328339,446.7069,201.1428,65.88094,45.16323
1328357,446.6094,200.6266,65.87627,45.08961
1328382,446.5146,199.8755,65.87174,44.98217
1328406,446.4115,199.2915,65.86681,44.89834
1328428,446.2044,198.7443,65.85688,44.81956
1328452,445.9944,198.1312,65.84681,44.73106
1328477,445.8624,197.2586,65.84048,44.60463
1328500,445.6895,196.4609,65.83218,44.48854
1328523,445.5932,195.6255,65.82755,44.36649
1328550,445.5224,194.3206,65.82416,44.17482
1328573,445.5112,193.1116,65.82362,43.99612
1328594,445.6373,191.5414,65.82967,43.76242
1328618,446.1163,189.5778,65.85266,43.46756
1328640,446.967,186.624,65.89338,43.01854
1328669,448.2499,183.1979,65.95454,42.48936
1328688,449.8796,180.0362,66.03182,41.99294
1328713,451.4415,176.9427,66.10545,41.49963
1328735,452.6405,174.1634,66.16167,41.0499
1328758,453.4442,171.9231,66.19923,40.68287
1328783,453.8456,170.341,66.21794,40.4212
1328805,453.9246,169.3369,66.22163,40.25408
1328831,453.7726,167.9592,66.21454,40.02341
1328854,453.5292,166.6493,66.20319,39.80264
1328876,453.1489,165.4339,66.18545,39.59652
1328899,452.8074,164.6454,66.16949,39.46213
1328922,452.3369,164.2251,66.14746,39.39029
1328947,451.8497,163.9438,66.12462,39.34213
1328971,451.2393,163.9491,66.09594,39.34304
1328992,450.6483,164.0052,66.06811,39.35264
1329016,450.1322,163.8589,66.04375,39.32757
1329038,449.66,163.4472,66.02143,39.25694
1329064,449.2116,162.4081,66.0002,39.078
1329087,448.9862,161.2036,65.98951,38.86944
1329108,448.6977,160.2109,65.97582,38.69664
1329133,448.3232,159.7983,65.95803,38.62455
1329156,447.9186,159.7378,65.93877,38.61398
1329181,447.3923,159.8016,65.91369,38.62513
1329203,446.7511,160.2563,65.88306,38.70454
1329226,446.1598,160.9635,65.85474,38.82771
1329251,445.4566,161.8853,65.82099,38.98763
1329273,444.8556,162.6278,65.79208,39.11591
1329297,444.1784,163.3433,65.75941,39.23908
1329323,443.6665,163.9691,65.73466,39.34647
1329346,443.249,164.5143,65.71445,39.43974
1329373,442.8012,164.9852,65.69273,39.52011
1329397,442.5436,165.2112,65.68023,39.55861
1329415,442.2955,165.5271,65.66817,39.61236
1329438,442.1216,165.5753,65.65971,39.62056
1329456,441.8269,165.7386,65.64536,39.6483
1329474,441.4335,166.1003,65.62617,39.70969
1329493,440.8923,166.7456,65.59975,39.81892
1329514,440.1802,167.6513,65.56488,39.97164
1329535,439.3682,168.8882,65.52502,40.17911
1329555,438.6227,169.8057,65.4883,40.33221
1329571,437.8215,170.9843,65.44874,40.52784
1329589,436.9559,172.0726,65.40586,40.70749
1329610,436.2039,172.942,65.36849,40.8503
1329630,435.5051,173.918,65.33367,41.00989
1329657,434.7,175.3645,65.29343,41.24502
1329675,434.1375,176.4102,65.26525,41.41394
1329697,433.5961,177.4669,65.23808,41.58375
1329723,432.977,178.6207,65.20692,41.76815
1329743,432.3441,179.8648,65.175,41.9658
1329766,431.53,181.0741,65.13383,42.15676
1329788,430.7833,182.0216,65.09595,42.30558
1329812,430.0514,182.9355,65.05871,42.44845
1329838,429.5925,183.8665,65.03532,42.59333
1329860,429.1906,184.5933,65.01479,42.70598
1329883,428.7606,185.634,64.99279,42.86655
1329906,428.4707,186.4989,64.97794,42.99937
1329927,428.0414,187.4972,64.95592,43.15196
1329957,427.5596,188.8301,64.93117,43.35452
1329978,426.9628,189.9854,64.90044,43.52901
1330007,426.2932,190.6507,64.86588,43.62902
1330026,425.4664,190.8434,64.82308,43.65793
1330055,424.3438,191.5327,64.76476,43.76112
1330082,423.4245,192.4895,64.7168,43.90375
1330105,422.5183,193.4623,64.66936,44.04807
1330127,421.6791,194.5026,64.62528,44.20164
1330143,420.8263,195.435,64.58034,44.3386
1330170,420.0623,196.111,64.53995,44.43749
1330191,419.4359,196.8862,64.50675,44.55049
1330217,418.9619,197.5671,64.48157,44.64939
1330239,418.4117,198.3587,64.45229,44.76393
1330261,417.933,199.3124,64.42676,44.90134
1330287,417.4383,200.2572,64.40033,45.03682
1330308,416.8881,201.0175,64.37086,45.14538
1330335,416.1917,201.6264,64.33349,45.23202
1330356,415.557,202.3416,64.29934,45.33345
1330378,415.0391,202.911,64.27141,45.41395
1330403,414.4121,203.5692,64.23752,45.50671
1330426,413.8081,203.8566,64.20479,45.54712
1330451,413.2601,204.0918,64.17503,45.58015
1330472,412.8412,204.3545,64.15224,45.61699
1330495,412.4281,204.6129,64.12972,45.65319
1330518,411.7518,204.849,64.09279,45.68622
1330538,410.6788,204.9484,64.03398,45.70011
1330563,409.1441,204.9829,63.94944,45.70493
1330580,408.3996,204.9841,63.90825,45.7051
1330595,407.4781,205.1119,63.85709,45.72295
1330618,407.0282,205.4548,63.83205,45.77079
1330635,406.7847,205.7664,63.81847,45.81418
1330654,406.6349,206.1333,63.81012,45.8652
1330675,406.787,206.6426,63.8186,45.93586
1330692,407.1033,207.2497,63.83623,46.01985
1330715,407.524,208.2306,63.85964,46.15502
1330739,407.9844,209.014,63.88522,46.2625
1330761,408.5095,209.5025,63.91434,46.32931
1330784,409.2802,210.0462,63.95696,46.40347
1330810,410.2489,210.2532,64.01035,46.43166
1330832,411.1773,210.261,64.06133,46.43272
1330858,412.0741,210.6655,64.1104,46.48771
1330880,412.9085,210.8073,64.1559,46.50696
1330902,414.1973,210.8777,64.22588,46.51652
1330926,415.6177,210.7284,64.30261,46.49625
1330951,417.4261,210.5772,64.39967,46.47572
1330974,420.051,210.3808,64.53935,46.44902
1330995,422.6341,210.2038,64.67543,46.42493
1331019,425.2509,210.4398,64.8119,46.45704
1331044,427.1145,210.8358,64.90826,46.51083
1331065,428.6799,211.4416,64.98866,46.59291
1331090,430.3706,212.0193,65.07497,46.67094
1331113,431.6425,212.9001,65.13952,46.7895
1331138,433.1164,213.5193,65.21394,46.87252
1331160,433.8363,214.4214,65.25014,46.99302
1331184,434.3887,214.6153,65.27785,47.01886
1331208,434.5288,214.0049,65.28487,46.93746
1331232,434.4459,213.6824,65.28071,46.89435
1331258,434.3723,213.2893,65.27702,46.84171
1331277,434.0785,213.433,65.26229,46.86096
1331300,433.1408,214.1107,65.21517,46.95159
1331325,431.8877,214.8218,65.15193,47.04633
1331346,430.0628,215.7421,65.0593,47.16848
1331373,427.9086,216.8908,64.9491,47.32014
1331394,425.8259,217.846,64.84171,47.44559
1331418,423.4309,219.5468,64.71713,47.66749
1331442,421.1034,220.7174,64.59496,47.81913
1331464,418.7529,222.1419,64.47046,48.00249
1331489,416.2892,222.9799,64.33873,48.10974
1331511,413.8628,224.0891,64.20775,48.25101
1331533,411.084,225.5252,64.05622,48.43278
1331559,408.8405,226.2644,63.93266,48.52584
1331580,406.4875,227.2638,63.80189,48.6511
1331607,403.7428,228.4946,63.6478,48.80452
1331629,401.1046,228.6956,63.4981,48.82949
1331653,397.6849,229.3549,63.30169,48.91122
1331680,394.1085,230.1495,63.09337,49.00935
1331702,390.6761,231.0187,62.89059,49.11625
1331723,386.5486,231.7536,62.64298,49.20629
1331748,382.7926,232.0641,62.41401,49.24422
1331772,378.4414,232.7881,62.14429,49.33247
1331796,374.7362,233.5739,61.91077,49.42787
1331820,370.9469,234.2688,61.66819,49.51194
1331844,367.6359,234.8326,61.45308,49.57994
1331870,364.671,235.1899,61.25789,49.62294
1331890,361.059,235.3967,61.01679,49.64779
1331915,358.4352,235.7459,60.83932,49.68969
1331936,354.784,235.9837,60.58903,49.71818
1331963,352.026,236.073,60.39737,49.72888
1331982,348.6844,236.2995,60.16208,49.75598
1332010,345.0119,236.9683,59.89955,49.8358
1332031,341.481,237.2271,59.64317,49.86663
1332054,338.2039,237.0877,59.40166,49.85003
1332077,334.8165,237.0331,59.14835,49.84354
1332100,331.7835,237.3114,58.91831,49.87667
1332125,326.8316,237.9034,58.53604,49.94699
