Time Stamp(ms),Intersection,,Angle,
,x,y,x,y
928087.1,320.0413,250.3247,57.99794,51.37646
928103.2,320.0265,250.3926,57.99675,51.38404
928122.9,319.9938,250.4751,57.99412,51.39325
928139.1,319.9946,250.5859,57.99419,51.4056
928155.1,319.9992,250.6495,57.99456,51.41269
928172.5,319.8965,250.7467,57.98628,51.42352
928189.4,319.7766,250.8768,57.97663,51.438
928206,319.7694,250.9897,57.97605,51.45057
928222.6,319.8317,251.0839,57.98107,51.46104
928236.6,319.8619,251.1913,57.9835,51.47299
928252.3,319.7783,251.3153,57.97676,51.48676
928269.4,319.8251,251.458,57.98053,51.50262
928286.8,319.8343,251.603,57.98128,51.5187
928303.3,319.7816,251.8501,57.97704,51.5461
928321.3,319.6857,252.0438,57.96931,51.56754
928337.3,319.6004,252.2282,57.96243,51.58794
928351.1,319.4846,252.2999,57.95309,51.59588
928369.4,319.3447,252.4744,57.9418,51.61516
928385.6,319.1342,252.681,57.9248,51.63797
928402.6,318.9345,252.9488,57.90867,51.6675
928418.4,318.7578,253.2379,57.89437,51.69934
928434.3,318.5254,253.6114,57.87556,51.7404
928452.3,318.2255,254.169,57.85125,51.80157
928468.9,317.8519,254.8667,57.82092,51.87787
928484.8,317.4904,255.6327,57.79152,51.96135
928502.8,317.1453,256.5825,57.76341,52.06442
928519.1,316.6639,257.7441,57.72413,52.18984
928534.6,315.7703,259.6188,57.65098,52.39077
928553.4,314.7401,261.5993,57.56629,52.60107
928574,314.0193,263.3252,57.50679,52.7827
928590,313.254,265.2489,57.44341,52.98339
928606.4,312.5323,267.0034,57.38345,53.1648
928622.9,311.4919,269.0307,57.29665,53.37254
928641.6,310.7228,270.3974,57.23222,53.51144
928656.2,309.9354,271.8085,57.16602,53.65391
928670.2,309.0416,273.5335,57.09059,53.82678
928687.5,308.2681,274.9959,57.02506,53.97222
928703.9,307.4127,276.4546,56.95232,54.11629
928722.4,306.7475,277.51,56.89557,54.21991
928737.2,306.0834,278.6451,56.83873,54.33077
928753.9,305.4139,279.9402,56.78126,54.45654
928772.8,304.8285,281.2298,56.73085,54.58101
928787.5,304.2982,282.1779,56.68508,54.67203
928804.1,303.7213,283.1221,56.63515,54.76227
928822.3,303.2663,283.9025,56.59569,54.83656
928838.1,302.8893,284.5937,56.56293,54.90213
928854.1,302.3047,285.5247,56.51201,54.99011
928873.9,301.8381,286.1796,56.47127,55.05177
928889,301.3567,286.9259,56.42915,55.1218
928905.6,300.9095,287.6869,56.38993,55.19296
928923.6,300.5389,288.3404,56.35738,55.25387
928939.7,300.1755,288.8059,56.32539,55.29715
928955.5,299.8727,289.2655,56.29871,55.33977
928972.4,299.5978,289.8089,56.27445,55.39006
928990.7,299.4417,290.1978,56.26066,55.42596
929006.9,299.3745,290.3549,56.25472,55.44045
929022.5,299.0674,290.4489,56.22755,55.44912
929045.6,298.9195,290.403,56.21445,55.44489
929057.1,298.8353,290.3864,56.20699,55.44336
929072.8,298.8085,290.4215,56.20462,55.44659
929089.1,298.745,290.364,56.19899,55.4413
929105,298.6342,290.1111,56.18916,55.41796
929121.3,298.4616,289.9062,56.17385,55.39905
929136.3,298.382,289.7297,56.16677,55.38274
929153.2,298.4133,289.4873,56.16956,55.36031
929170.4,298.4246,289.3754,56.17056,55.34995
929186.7,298.3677,289.2321,56.16551,55.33668
929203.3,298.3405,289.0102,56.16309,55.3161
929220,298.3087,288.798,56.16026,55.29641
929237.6,298.302,288.4352,56.15967,55.26269
929254.6,298.2179,288.1807,56.15219,55.239
929272.6,298.1162,287.9608,56.14315,55.21851
929288.2,297.9689,287.7625,56.13005,55.20002
929303.5,297.7746,287.499,56.11276,55.17542
929319.6,297.4811,287.0435,56.0866,55.13282
929336.2,297.2576,286.6013,56.06666,55.09137
929355.3,297.1568,286.2264,56.05766,55.05617
929372.5,297.1038,285.828,56.05293,55.01869
929390.1,297.0218,285.4638,56.0456,54.98436
929405.6,296.9555,285.0676,56.03967,54.94696
929421.3,296.923,284.5554,56.03676,54.8985
929438.4,296.9142,284.0533,56.03597,54.85088
929454.8,296.9039,283.3958,56.03506,54.78836
929472.3,296.8257,282.8071,56.02806,54.7322
929489,296.7292,282.1835,56.01943,54.67257
929505.1,296.6894,281.492,56.01587,54.60622
929521.6,296.5652,280.8017,56.00475,54.53976
929539.7,296.4731,280.1429,55.99649,54.47615
929554,296.4506,279.5166,55.99448,54.41549
929571.6,296.3872,278.8793,55.9888,54.35357
929588.8,296.2509,278.179,55.97658,54.28532
929605.7,296.1823,277.6117,55.97042,54.22987
929621.6,296.3419,276.284,55.98474,54.09949
929643.1,296.7559,275.3536,56.02182,54.00764
929657.8,296.9615,274.7012,56.04021,53.94299
929670.6,297.0475,274.0342,56.04789,53.87669
929689.1,297.3928,273.7877,56.07872,53.85213
929705.1,297.8232,273.3412,56.11708,53.80758
929722.6,298.2292,273.2878,56.1532,53.80225
929738.9,298.5355,273.2141,56.1804,53.79487
929755.3,299.0817,272.9832,56.22882,53.77178
929773.8,299.5042,272.8499,56.26618,53.75844
929788.6,299.9855,272.8175,56.30865,53.7552
929805.5,300.4688,272.6403,56.35121,53.73744
929821.6,300.7942,272.4395,56.37981,53.71731
929838.4,301.0613,272.5486,56.40326,53.72826
929854.9,301.4572,272.9505,56.43795,53.76852
929872,301.8786,273.3846,56.47481,53.81192
929891.9,302.2549,273.5654,56.50767,53.82996
929906.9,302.3915,273.4057,56.51958,53.81402
929922.3,302.571,273.1091,56.53522,53.78438
929939.2,302.8174,272.6447,56.55667,53.73788
929954.9,303.3018,271.532,56.59878,53.62608
929972.4,303.6258,270.2743,56.62688,53.49897
929989.3,303.6685,269.6162,56.63058,53.43216
930006.5,303.8797,268.9538,56.64888,53.36469
930022.7,304.2307,268.2318,56.67924,53.29092
930038.9,304.7991,267.187,56.72832,53.18369
930056.4,305.3881,266.5513,56.77903,53.1182
930072.8,305.8264,266.9114,56.81669,53.15533
930088.7,306.4424,267.1456,56.86948,53.17944
930107.4,307.0172,267.1848,56.9186,53.18347
930121.9,307.4807,266.6403,56.95812,53.12738
930139.4,307.6743,265.9755,56.97461,53.0587
930154.9,307.793,265.1485,56.9847,52.97296
930172.2,307.7091,264.7584,56.97757,52.93239
930189.7,307.8326,264.5173,56.98806,52.90728
930205.5,307.9938,263.8793,57.00177,52.84071
930222.4,307.8391,263.6011,56.98862,52.81161
930239.4,307.7906,263.387,56.98449,52.78918
930255.2,307.8943,262.556,56.99332,52.70194
930272.1,308.0559,261.8967,57.00705,52.63248
930289.9,308.1543,261.3462,57.0154,52.57431
930305.4,308.2729,259.9531,57.02547,52.42641
930321.2,308.6259,258.2756,57.0554,52.247
930337.3,309.3428,257.0624,57.11604,52.11633
930355,309.8522,256.3698,57.15901,52.04139
930371.6,310.0172,255.6032,57.17291,51.95815
930389.4,310.0221,254.587,57.17332,51.84731
930406.1,310.2491,253.5475,57.19242,51.73339
930421.8,310.4784,252.2548,57.21169,51.59089
930438.8,310.2708,251.2035,57.19424,51.47435
930458.6,309.8493,250.0081,57.15877,51.3411
930473.3,309.5482,248.5313,57.13338,51.17541
930491.1,309.6055,247.2522,57.13821,51.03093
930508.8,309.702,246.5508,57.14635,50.95131
930523.6,309.6937,245.7037,57.14565,50.8548
930540.5,309.8352,244.7,57.15758,50.73994
930556.6,310.1567,243.5099,57.18465,50.60299
930572.4,310.524,241.971,57.21553,50.42472
930595.1,310.6054,240.6975,57.22236,50.27618
930611.3,310.7391,239.8116,57.23359,50.17229
930625.1,310.9261,239.0414,57.24927,50.08161
930641.1,310.8474,237.9293,57.24267,49.95007
930658.2,310.5867,236.5927,57.22079,49.791
930673.4,310.5439,235.0824,57.2172,49.61
930691.6,310.9742,234.1189,57.2533,49.49384
930708.3,311.064,233.5096,57.26083,49.42009
930723.8,310.2382,232.8397,57.19151,49.33873
930746.6,309.2129,232.1664,57.10507,49.25671
930760.4,308.4011,231.2978,57.03634,49.15049
930775.9,307.9305,230.6889,56.99639,49.07574
930791,307.4762,229.9943,56.95773,48.99021
930809.2,306.8109,229.4198,56.90099,48.91924
930824.4,305.8957,228.3397,56.82263,48.78527
930839.8,305.1142,227.2974,56.75547,48.6553
930857.7,304.3194,226.3426,56.68691,48.53566
930873.9,303.4433,225.2159,56.61106,48.39375
930889.9,302.4293,223.9333,56.52288,48.23122
930905.4,301.3531,222.6271,56.42883,48.06464
930924.1,300.2914,221.8348,56.33561,47.96307
930939.2,299.3942,221.2578,56.25646,47.88885
930955.2,298.5589,220.6935,56.18248,47.81606
930973.4,297.8864,220.1034,56.12271,47.73971
930990.6,297.2593,219.4689,56.06681,47.65738
931005.2,296.7029,219.0093,56.01707,47.59758
931024.3,296.226,218.6214,55.97435,47.54699
931041.5,295.8167,218.2744,55.9376,47.50166
931057.8,295.4604,218.2518,55.90555,47.49871
931072.6,295.084,218.35,55.87164,47.51154
931090.6,294.7464,218.2776,55.84117,47.50208
931108.1,294.2379,218.1165,55.79519,47.48101
931125.4,293.7898,217.8657,55.75457,47.44817
931140.7,293.5193,217.2707,55.73003,47.37011
931157.6,293.3611,216.7679,55.71565,47.30394
931171.9,293.142,216.2044,55.69572,47.22962
931189.8,292.7343,215.5869,55.65859,47.14792
931205.7,292.2167,215.2409,55.61134,47.10203
931222.3,291.7497,215.0634,55.56862,47.07846
931239.6,291.431,214.7619,55.5394,47.03836
931255.1,290.8677,214.1497,55.48767,46.95678
931272.3,290.1428,213.94,55.42089,46.92878
931288.1,289.419,213.6712,55.35399,46.89285
931304.3,289.0831,213.1814,55.32286,46.82725
931326.9,289.0837,212.481,55.32293,46.73315
931341.9,288.9384,211.7322,55.30944,46.63219
931357.6,288.4838,210.8411,55.26721,46.51155
931372.6,288.1559,210.2485,55.23669,46.43102
931390.9,288.1373,209.6956,55.23496,46.35567
931406.9,288.3375,208.8504,55.2536,46.24009
931423.3,288.2161,207.8885,55.2423,46.10795
931440.1,288.1066,207.0083,55.2321,45.98649
931455.9,288.4003,206.6509,55.25945,45.937
931472,288.9284,206.157,55.30851,45.86849
931489.2,289.3619,205.2599,55.3487,45.7436
931506.3,289.0802,204.3253,55.3226,45.61291
931523.5,288.488,203.7505,55.2676,45.53221
931540.9,287.6541,203.6904,55.1899,45.52376
931556.9,286.3263,204.0443,55.06556,45.57348
931573.9,285.2011,204.2858,54.95958,45.60736
931590.9,284.3732,204.8097,54.88124,45.68072
931612,283.9391,204.4638,54.84004,45.63231
931623.5,283.5061,203.1243,54.79886,45.44405
931640.3,283.2924,201.8405,54.77851,45.26242
931657.7,283.5329,201.1976,54.80141,45.17104
931673.2,284.3615,201.3957,54.88012,45.19923
931691.4,285.0806,201.7993,54.94819,45.25658
931707,285.8771,202.7266,55.02331,45.38791
931722.8,287.3203,204.304,55.15872,45.60991
931740.5,288.7426,205.722,55.29126,45.808
931757,290.2196,208.2256,55.42798,46.15433
931772.9,291.8456,213.1283,55.5774,46.82012
931789.2,293.1848,218.9483,55.69962,47.58963
931808,294.4505,226.2095,55.81442,48.51894
931824.4,295.5605,230.7292,55.91456,49.0807
931841.5,296.052,235.1159,55.95873,49.61404
931860.6,296.1763,239.7251,55.96988,50.16213
931873.6,296.7523,246.023,56.02149,50.89124
931890.9,297.9862,255.1039,56.13159,51.90376
931910.7,298.5881,260.8978,56.18507,52.52681
931937.2,298.6958,262.7581,56.19462,52.72319
931945.1,298.9329,267.1364,56.21564,53.17849
931961.4,299.4867,269.4295,56.26463,53.41316
931975.9,300.6785,271.2438,56.36965,53.59702
931990.1,302.86,269.4426,56.56038,53.41449
932009.6,304.8747,267.5145,56.73483,53.21737
932024.6,307.1826,266.0189,56.93272,53.06319
932041.1,308.9289,266.5795,57.08105,53.12111
932057.8,310.2249,268.1794,57.19038,53.28555
932073.4,311.1049,269.5929,57.26425,53.42978
932091.5,311.9325,270.2504,57.33345,53.49655
932109.8,312.5209,270.8516,57.3825,53.5574
932124,313.382,271.9215,57.45403,53.66528
932141.5,314.1137,272.9771,57.5146,53.77118
932157.8,314.4148,273.301,57.53946,53.80356
932173.7,314.7514,273.4476,57.56722,53.81821
932192.3,314.8068,273.2069,57.57178,53.79416
932208.9,314.8595,273.1187,57.57612,53.78534
932224.5,314.9003,272.9508,57.57949,53.76854
932241.1,314.8839,272.2512,57.57814,53.69841
932259.3,314.9722,271.7918,57.58541,53.65223
932275.8,315.0847,271.465,57.59467,53.61932
932292.9,315.2701,271.1408,57.60991,53.58662
932312,315.3583,270.6619,57.61716,53.53822
932330,315.159,269.5374,57.60078,53.42414
932345.4,314.8505,268.4012,57.57538,53.30824
932361.6,314.5381,267.3541,57.54963,53.20088
932378.4,314.2068,266.5555,57.52229,53.11864
932394,313.8048,265.8367,57.48905,53.04433
932412.4,313.3714,265.1683,57.45316,52.97502
932428.3,312.83,264.3563,57.40821,52.8905
932444.9,312.3873,263.598,57.37137,52.81128
932461.8,312.0964,263.1475,57.34713,52.76408
932477.5,312.0418,262.7163,57.34258,52.7188
932490.8,311.9975,262.3197,57.33888,52.67707
932508,311.9634,261.7657,57.33603,52.61865
932524.4,311.9543,261.3564,57.33527,52.57539
932540.8,311.8073,260.5293,57.323,52.4877
932559.3,311.6376,259.5241,57.30883,52.38066
932575.8,311.4558,258.2203,57.29362,52.24105
932592.6,311.2194,256.931,57.27384,52.10213
932610.7,311.0865,256.1101,57.26271,52.01322
932625.6,311.0902,255.2039,57.26302,51.91466
932642.6,311.1781,254.3971,57.27039,51.82654
932658.2,311.3469,253.515,57.28452,51.72981
932674.6,311.5495,252.5903,57.30146,51.62796
932693.3,311.8987,252.0651,57.33064,51.56991
932709.2,312.4057,251.5059,57.3729,51.50793
932725.6,312.9459,251.1149,57.41784,51.46449
932741.8,313.6716,250.6738,57.47803,51.4154
932759.8,314.2001,250.2082,57.52174,51.36345
932774.4,314.6576,249.7915,57.55949,51.31687
932792.9,315.101,249.6415,57.596,51.30008
932808.8,315.5303,249.6339,57.63129,51.29923
932824.5,315.9262,250.0079,57.66376,51.34108
932841.8,316.2413,250.9527,57.68958,51.44645
932857.6,316.3355,252.5364,57.69728,51.62201
932873.1,316.118,255.6566,57.67948,51.96395
932892.4,315.8747,258.7783,57.65955,52.30091
932908.3,315.5006,262.7174,57.62885,52.71891
932924.3,315.3156,265.8573,57.61365,53.04647
932941.6,315.0737,268.5254,57.59376,53.32095
932961.1,314.7736,270.9045,57.56905,53.56275
932975.1,314.6789,273.1249,57.56125,53.78596
932992.9,314.6657,275.8239,57.56015,54.05412
933010.4,314.8411,278.2382,57.57461,54.2911
933027,315.0084,280.9101,57.58839,54.55022
933041.2,315.1945,283.8166,57.60369,54.8284
933057.8,315.431,286.5083,57.62313,55.08265
933073.4,315.5248,289.1797,57.63084,55.33182
933090.7,315.502,291.7736,57.62896,55.57081
933110.7,315.5191,293.8522,57.63037,55.76023
933125.2,315.5217,295.8201,57.63058,55.9379
933141.4,315.5466,297.6414,57.63263,56.10089
933159.1,315.4565,298.8862,57.62523,56.2115
933178.7,315.2604,299.9236,57.60911,56.3032
933192.4,315.1238,301.0943,57.59788,56.40615
933209.1,315.0707,302.3393,57.59351,56.51503
933228.8,314.9945,303.5596,57.58724,56.62114
933242.9,314.8575,304.7437,57.57596,56.72354
933258.7,314.6298,305.9081,57.5572,56.8237
933274.9,314.3786,307.0101,57.53648,56.918
933293.9,314.1456,308.0099,57.51723,57.00314
933310.3,313.9526,309.1446,57.50128,57.09929
933325.9,313.7268,310.2886,57.4826,57.19574
933343.1,313.4831,311.1543,57.46241,57.26839
933359.9,313.1981,311.6697,57.43878,57.31151
933375.5,312.9414,312.0959,57.41746,57.34708
933392.8,312.8035,312.5327,57.40601,57.38348
933409.9,312.7445,312.62,57.4011,57.39074
933425.9,312.7333,312.2334,57.40017,57.35855
933442.6,312.7987,311.3499,57.40561,57.28476
933460,312.9492,310.7584,57.41812,57.2352
933476.5,313.1942,310.0341,57.43845,57.17432
933492.6,313.6087,308.9693,57.47282,57.08447
933509.4,313.9498,307.938,57.50105,56.99702
933526.1,314.3523,306.558,57.5343,56.87937
933544.4,314.8541,304.8729,57.57568,56.73468
933563.8,315.281,303.4218,57.61081,56.60919
933580.5,315.6567,301.6719,57.64166,56.45674
933595.7,315.9267,300.1297,57.66381,56.32137
933610.7,316.3345,297.9399,57.6972,56.12747
933628.9,316.6817,295.6882,57.72559,55.92604
933645.6,317.0977,293.2501,57.75953,55.70555
933661.4,317.5901,290.0645,57.79963,55.41366
933679.5,317.9443,287.2373,57.82842,55.15096
933697.3,318.2596,284.075,57.85402,54.85294
933711.3,318.63,280.4706,57.88403,54.50782
933728.6,319.0503,277.0294,57.91803,54.17279
933744.8,319.4554,273.0793,57.95074,53.78141
933761.8,319.7908,268.819,57.97778,53.35094
933780.9,319.9431,263.969,57.99004,52.85007
933798.3,320.1521,259.9637,58.00685,52.42754
933813.1,320.3762,255.4749,58.02486,51.94418
933829.4,320.5724,251.0461,58.04062,51.45684
933847.4,320.6659,246.6723,58.04813,50.96513
933864.6,320.6451,242.8029,58.04645,50.52126
933880.6,320.5106,238.7408,58.03566,50.04612
933896.6,320.4606,234.9443,58.03164,49.59339
933912.9,320.3429,231.1093,58.02219,49.12738
933928.8,320.1011,227.2212,58.00275,48.64578
933945.8,319.8215,223.7006,57.98024,48.20163
933962.3,319.4373,220.1402,57.94928,47.74447
933979,318.9232,217.0491,57.90776,47.34097
933996,318.4658,214.5383,57.87073,47.0086
934012.1,317.9348,212.1163,57.82765,46.68402
934029.4,317.2997,210.519,57.776,46.4678
934046.2,316.5602,208.7486,57.71566,46.22614
934066,315.7163,206.2871,57.64655,45.88656
934088.7,314.5951,204.3612,57.55434,45.61793
934097.6,313.9284,203.3425,57.49928,45.4748
934109.3,312.7503,202.064,57.40158,45.29413
934127.5,311.6301,200.8945,57.3082,45.12785
934144.3,310.2063,199.7328,57.18882,44.9617
934160.4,308.6721,198.2887,57.05931,44.75382
934178.4,307.2329,197.0685,56.937,44.577
934194.5,305.4,195.6415,56.78006,44.36884
934213.4,303.6907,194.3182,56.63251,44.17447
934229.1,301.552,193,56.44625,43.97956
934246.6,299.6704,191.7446,56.28086,43.79277
934261.8,297.5885,190.2668,56.09617,43.57135
934278.7,295.4986,188.8227,55.90899,43.35339
934299.8,293.5048,187.3706,55.7287,43.13265
934312.9,291.4845,185.7137,55.54431,42.87881
934328.1,289.1324,183.8301,55.32743,42.58769
934345.1,287.0062,182.1119,55.12933,42.31973
934361.8,284.8013,180.2632,54.92178,42.02885
934376.8,282.5259,178.2379,54.70533,41.70709
934394.1,280.1455,176.3068,54.4764,41.39727
934412.1,277.2471,174.3794,54.19415,41.08507
934426.6,274.3222,172.77,53.90535,40.8221
934443.6,271.6618,171.3844,53.63914,40.594
934460.2,269.0391,170.1269,53.37339,40.38564
934476.9,266.5192,169.0386,53.11489,40.20427
934492.9,263.9076,167.9705,52.84366,40.0253
934510.6,261.2532,166.9125,52.56446,39.8471
934526.9,258.7303,165.9645,52.29578,39.68665
934543.6,256.1455,165.2035,52.01706,39.55731
934561,253.8453,164.7617,51.76608,39.48199
934577.4,251.7336,164.2632,51.53318,39.3968
934592.5,249.3547,163.7294,51.26793,39.30536
934610.4,246.9643,162.8269,50.99828,39.15023
934626.4,244.3677,161.8631,50.70177,38.98378
934643.3,241.6748,161.0296,50.39026,38.83921
934660.9,239.3299,160.4082,50.11563,38.73103
934676.6,236.9605,159.7438,49.83488,38.61503
934693.9,234.1035,158.959,49.49197,38.47751
934712.6,231.6136,158.1959,49.18916,38.34327
934728.6,229.0411,157.4191,48.87235,38.20612
934746.4,226.5235,156.6417,48.55837,38.06835
934761.6,224.1031,155.9445,48.2528,37.94434
934778.1,221.6893,155.2648,47.94437,37.82305
934797,219.2816,154.6805,47.63302,37.71846
934813.6,217.0145,154.2286,47.33641,37.63737
934829.6,214.86,153.7774,47.05142,37.55622
934846.6,212.8527,153.4906,46.78312,37.50454
934861.3,210.8259,153.2626,46.50948,37.46342
934879.3,209.2905,153.1325,46.30034,37.43992
934894.5,207.6117,152.944,46.06981,37.40587
934911.9,206.2116,152.9017,45.87607,37.39821
934928.9,204.8637,152.7451,45.68827,37.3699
934945.3,203.6797,152.6606,45.52227,37.35461
934962.9,202.5947,152.5111,45.36926,37.32753
934981,201.8466,152.3684,45.26328,37.30167
934996.5,201.2019,152.3009,45.17164,37.28943
935012.5,200.7157,152.2003,45.10234,37.27119
935028.8,200.4324,152.2003,45.06187,37.2712
935045.7,200.5192,152.0318,45.07427,37.2406
935062.4,200.5733,151.9846,45.082,37.23204
935079.2,200.8864,151.8205,45.12669,37.20222
935094,201.2862,151.7418,45.18364,37.18791
935114.6,201.9908,151.7637,45.28374,37.19191
935131,202.6261,151.7578,45.3737,37.19083
935145.8,203.2909,151.6395,45.46753,37.16931
935161.9,204.0896,151.5463,45.57984,37.15235
935181.9,204.7519,151.5539,45.67264,37.15374
935197.5,205.4592,151.6052,45.7714,37.16307
935212.3,206.3509,151.717,45.89541,37.18341
935230.6,207.1334,151.7128,46.00378,37.18265
935246.3,207.9574,151.746,46.11744,37.18869
935263.6,208.8913,151.7614,46.2457,37.19147
935282.2,209.6138,151.9387,46.34451,37.2237
935302.2,210.4415,152.1287,46.45728,37.2582
935318.9,210.9116,152.3178,46.52111,37.29251
935330.9,211.5793,152.5444,46.61153,37.33356
935347.6,212.1821,152.814,46.69289,37.38236
935364.4,212.6931,152.971,46.76167,37.41075
935380.8,213.2091,153.1172,46.83096,37.43717
935398.2,213.603,153.3895,46.88372,37.48632
935414.3,214.0519,153.7094,46.94373,37.54397
935431.1,214.4924,154.0802,47.00249,37.61069
935448.4,214.8926,154.3533,47.05576,37.65976
935464.4,215.2698,154.5556,47.10586,37.69606
935483.6,215.5818,154.7033,47.14724,37.72255
935503.3,215.8826,154.8203,47.18707,37.74351
935519,216.2057,154.8795,47.22979,37.75412
935532.7,216.6305,154.8824,47.28584,37.75463
935549.6,216.9742,154.9793,47.33111,37.77198
935565.1,217.5431,155.0287,47.40587,37.78083
