Time Stamp(ms),Intersection,,Angle,
,x,y,x,y
283061.3,315.5068,244.7026,57.62936,50.74023
283077.1,315.4063,244.806,57.62111,50.75209
283093.9,315.3268,244.9492,57.61457,50.7685
283109.3,315.2915,244.9798,57.61167,50.77201
283127,315.1512,244.8571,57.60013,50.75795
283142.9,315.2862,244.8645,57.61124,50.7588
283158.9,315.4385,244.8701,57.62375,50.75944
283176.6,315.5072,244.8114,57.62939,50.75271
283192.7,315.3647,244.978,57.61768,50.7718
283209.3,315.2545,245.1,57.60863,50.78578
283225.5,315.1438,245.1215,57.59953,50.78825
283242.6,315.0788,245.1061,57.59417,50.78648
283260.1,315.0898,245.3286,57.59508,50.81194
283275.3,315.1297,245.5257,57.59837,50.83448
283291.8,315.1114,245.5717,57.59686,50.83973
283311,315.0296,245.7785,57.59013,50.86334
283328.3,314.9789,246.1721,57.58596,50.90822
283343,314.8683,246.4215,57.57685,50.93661
283359.6,314.7538,246.4723,57.56742,50.94239
283379.1,314.5684,246.6684,57.55214,50.96469
283394.1,314.3706,247.1265,57.53582,51.01669
283412.5,314.2879,247.8516,57.52898,51.09875
283428.7,314.1912,248.2281,57.521,51.14124
283443.8,313.9315,248.3231,57.49954,51.15195
283460.6,313.6061,248.5472,57.47261,51.17719
283476.8,313.4365,248.3476,57.45855,51.15471
283493.4,313.8293,247.8424,57.49108,51.0977
283510.1,314.7578,246.8672,57.56775,50.98726
283527.7,316.3278,244.5359,57.69665,50.7211
283555.4,317.9525,241.7884,57.82909,50.40348
283564.2,318.6679,240.3577,57.8871,50.23639
283576.7,319.8025,238.9501,57.97871,50.07085
283593.9,320.4148,239.394,58.02797,50.12318
283610.7,320.3228,241.9904,58.02057,50.42698
283626.9,318.7813,247.7005,57.89628,51.08167
283644.2,316.6271,253.5561,57.72112,51.73432
283662.7,314.9991,256.2441,57.58762,52.02776
283677.1,312.2239,259.1255,57.35776,52.33808
283694.3,310.911,260.3158,57.248,52.46502
283712,311.4801,260.4435,57.29566,52.47858
283730.4,312.6174,260.3033,57.39053,52.46369
283744.9,314.2159,259.1818,57.52304,52.34409
283761.6,316.457,256.6166,57.70722,52.06812
283778.3,317.9269,254.9406,57.82701,51.88594
283793.3,319.345,252.9361,57.94183,51.6661
283811.1,320.9286,250.8579,58.06919,51.4359
283827.8,323.4603,247.8362,58.27092,51.09701
283845.4,327.8924,243.7288,58.61864,50.62824
283861.5,330.6063,239.4028,58.8282,50.12421
283878.2,332.5733,233.8429,58.97851,49.46045
283894,334.9421,227.7383,59.15781,48.71037
283910.9,336.1134,224.541,59.24578,48.30836
283928.4,335.5848,225.8538,59.20614,48.47419
283945.5,334.286,226.5758,59.10834,48.56494
283960.3,332.3507,226.2827,58.96157,48.52814
283976.9,330.9454,225.9511,58.8542,48.48644
283993.9,330.0804,227.0978,58.78778,48.63034
284012.4,329.2611,227.8664,58.72464,48.72634
284034.6,328.8577,228.3815,58.69346,48.79046
284046.2,328.2516,228.7292,58.64652,48.83366
284060.9,328.3279,229.3712,58.65244,48.91322
284080.9,328.1889,229.884,58.64166,48.97661
284097.5,327.7498,230.0644,58.60756,48.99886
284113.6,326.3241,231.279,58.49638,49.14818
284129.6,325.4618,233.4868,58.4288,49.41732
284147,325.6679,236.409,58.44498,49.76906
284163.3,326.2554,238.3405,58.49101,49.99879
284181.3,327.0561,239.8246,58.55355,50.17383
284196.7,328.2481,241.585,58.64625,50.3798
284212.8,330.7347,244.4078,58.83805,50.70638
284230.7,332.8922,246.1759,59.00275,50.90866
284246.5,334.2356,246.5569,59.10453,50.95201
284263.8,334.925,246.4875,59.15652,50.94412
284280.5,334.5633,246.0222,59.12926,50.89114
284297.8,333.7264,245.417,59.06603,50.82205
284313.6,333.1667,245.3219,59.0236,50.81118
284330.8,333.1444,246.2208,59.02191,50.91377
284348.3,333.3689,247.2459,59.03894,51.03022
284364,333.6036,247.9386,59.05672,51.10857
284380.2,333.2049,248.5801,59.0265,51.1809
284398,332.1413,249.2979,58.94561,51.26157
284412.8,330.1641,250.4589,58.79422,51.39144
284430.8,327.5183,251.401,58.58955,51.49628
284451,325.6448,251.8315,58.44316,51.54404
284464.2,323.8319,251.6739,58.30034,51.52657
284481.3,322.5058,250.8967,58.19513,51.44022
284498.9,322.1458,250.402,58.16646,51.38509
284512.7,322.3638,250.482,58.18383,51.39401
284531.5,322.4419,251.272,58.19005,51.48196
284549.6,322.4963,252.6073,58.19437,51.62984
284563,322.8817,254.9692,58.22502,51.88906
284579.3,323.3752,257.3179,58.26418,52.14391
284595.3,323.5841,258.5967,58.28073,52.28146
284615.1,323.9771,259.5344,58.31182,52.38177
284632.4,324.2593,260.5538,58.33411,52.49031
284646.1,324.4361,261.4932,58.34807,52.58986
284663.1,324.6974,262.3453,58.36867,52.67976
284680.2,324.7724,263.2093,58.37458,52.77056
284697,324.6951,263.8582,58.36849,52.83849
284712.7,324.1876,264.5448,58.32845,52.91015
284731,323.2783,265.1595,58.2565,52.9741
284748,322.6648,266.2434,58.20778,53.08641
284764.3,322.7243,267.4908,58.21251,53.21493
284780.7,323.0245,268.8266,58.23635,53.35171
284798.1,323.038,270.0757,58.23743,53.47882
284813.5,322.2798,270.9098,58.17714,53.56329
284830.7,321.5221,271.4123,58.11668,53.61401
284846.8,320.8412,271.8089,58.06218,53.65395
284864.4,320.6514,272.3208,58.04696,53.7054
284881.7,321.2028,273.0294,58.09114,53.77641
284897.7,322.2437,273.9884,58.17426,53.87213
284912.5,323.5049,274.8625,58.27445,53.959
284929.7,323.8624,275.2435,58.30275,53.99675
284946.8,323.3366,275.3252,58.26112,54.00483
284963.1,322.6628,275.4567,58.20762,54.01784
284980.5,322.2303,275.9616,58.17319,54.06771
284997.7,322.3623,276.6969,58.18371,54.14012
285014,322.6946,277.0716,58.21015,54.17693
285030.3,323.1031,276.8422,58.2426,54.1544
285047.3,323.261,276.7886,58.25512,54.14914
285066.1,323.0291,276.8923,58.23672,54.15933
285081.2,322.5126,277.4986,58.19567,54.21879
285098,321.9549,278.0378,58.15124,54.27152
285114.5,321.439,277.9644,58.11004,54.26435
285131.9,320.8548,277.0873,58.06327,54.17847
285149.8,320.8762,276.5605,58.06499,54.12671
285165.2,321.2524,276.3065,58.09512,54.1017
285181.2,321.8227,276.2619,58.1407,54.09731
285198.5,322.2205,276.1926,58.17242,54.09048
285213.2,322.0033,275.6934,58.1551,54.04124
285230.7,321.4649,275.0278,58.11211,53.97538
285248.5,320.5708,274.4785,58.04049,53.92088
285264.6,320.0014,274.0992,57.99473,53.88316
285281.2,320.3091,273.5809,58.01947,53.83151
285299.8,320.3335,272.2085,58.02143,53.69413
285314.4,320.1306,271.5179,58.00512,53.62465
285330.4,318.5255,274.4051,57.87557,53.91359
285348.4,314.928,276.5654,57.58177,54.12719
285364.9,313.7487,274.4402,57.48441,53.91707
285380.3,314.1265,272.2309,57.51566,53.69638
285397.5,314.0111,270.8668,57.50612,53.55894
285414.2,313.3299,269.925,57.44971,53.46353
285431.4,312.9266,269.2288,57.41624,53.39272
285448.7,313.151,268.572,57.43487,53.32571
285464.3,313.4228,266.9079,57.45742,53.15497
285482.2,313.1088,266.1272,57.43137,53.0744
285498.1,312.5589,266.2305,57.38566,53.08508
285514.7,311.5479,267.1246,57.30133,53.17728
285531.7,310.7213,267.166,57.23209,53.18154
285548.5,308.912,266.5088,57.07963,53.11382
285565.4,306.2552,265.4409,56.85345,53.00331
285582.3,304.8629,265.2674,56.73382,52.98531
285598.3,303.6547,265.7908,56.62939,53.03958
285614.4,303.2326,266.804,56.59276,53.14426
285631.8,303.6978,267.3713,56.63313,53.20265
285648.7,305.1136,267.9661,56.75542,53.26369
285664.9,306.2274,268.494,56.85107,53.31774
285683.1,306.4808,270.4463,56.87276,53.5164
285701.2,306.1226,272.8564,56.84209,53.7591
285718.8,305.9917,276.0919,56.83087,54.08055
285732.9,307.9431,279.5766,56.99746,54.42131
285750.6,309.8563,282.5625,57.15936,54.70884
285768.3,313.3406,285.5152,57.4506,54.98921
285783.7,318.2582,290.7511,57.8539,55.47694
285801.9,320.8919,293.268,58.06625,55.70718
285817.8,322.4229,292.1645,58.18853,55.60657
285834.3,324.7318,289.0899,58.37138,55.32349
285858.7,325.9792,286.7988,58.46938,55.10989
285874.3,326.1658,286.6031,58.484,55.09154
285885.1,325.4851,287.8932,58.43063,55.21222
285898.1,323.4593,291.9038,58.27084,55.58273
285917.3,321.8633,295.8539,58.14394,55.94094
285936.6,320.3865,299.3547,58.0257,56.25296
285951.2,318.3395,302.7655,57.8605,56.55216
285966.9,315.7624,305.3254,57.65033,56.77364
285983.6,312.729,306.7997,57.39981,56.90003
286001.1,308.9526,306.7314,57.08306,56.8942
286019.1,306.9157,305.6425,56.90993,56.8009
286033.5,305.0741,304.0804,56.75202,56.66625
286052.4,303.6241,302.2489,56.62673,56.50714
286068.9,302.4106,301.18,56.52124,56.41367
286084.9,301.9857,302.4262,56.48417,56.52261
286101.2,301.6632,304.9308,56.45597,56.73967
286118.2,301.4921,308.6221,56.441,57.05508
286134.1,302.0094,314.5048,56.48624,57.54689
286150.6,302.6348,320.0324,56.54078,57.99722
286168,303.0623,324.8436,56.57796,58.38018
286183.6,302.6408,328.1121,56.5413,58.6357
286200.5,302.4748,330.969,56.52684,58.85601
286219.7,303.7498,332.4084,56.63763,58.96596
286234,305.4872,334.6024,56.78755,59.13221
286251.3,306.7638,337.3646,56.89696,59.33925
286266.5,306.4416,341.9079,56.86941,59.67438
286284.9,304.2552,346.0721,56.68136,59.97577
286303.2,303.1196,349.7153,56.58295,60.23503
286317,303.5446,355.0095,56.61984,60.6046
286334.5,305.0123,360.2525,56.74669,60.96245
286353,304.6604,363.5915,56.71636,61.18622
286370.1,303.1822,365.6071,56.58839,61.31978
286384.2,300.9149,367.994,56.39041,61.47649
286402.3,299.9612,370.4161,56.30651,61.63391
286418.2,299.2794,371.2842,56.24631,61.68995
286434.1,298.2206,375.5951,56.15243,61.96522
286452.7,295.8089,379.7404,55.93689,62.22532
286467.6,291.6464,386.695,55.55915,62.65184
286485.6,283.6497,395.4518,54.81253,63.17197
286501.2,277.2029,402.6279,54.18981,63.58473
286518,272.1597,412.7061,53.68922,64.14487
286535,267.8663,425.0074,53.25346,64.79926
286552,263.2976,436.217,52.77981,65.36914
286568.7,258.8988,449.6666,52.31382,66.02174
286584.9,253.3399,457.1921,51.71056,66.37289
286602,247.8738,463.9895,51.10125,66.68182
286621.3,242.2509,458.8075,50.45725,66.44701
286634.3,245.7668,454.2247,50.862,66.2356
286648.9,255.4819,465.6724,51.94493,66.75713
286667.6,256.3762,456.7873,52.04207,66.35425
286686.9,260.4066,449.9229,52.47467,66.03387
286702.9,264.1023,450.1263,52.864,66.04347
286719,268.5507,452.4073,53.32353,66.15076
286734.4,269.4044,450.901,53.41061,66.08002
286752.8,272.8184,435.6271,53.75529,65.33975
286768.3,279.657,419.2521,54.42909,64.49699
286787.9,283.1798,416.2391,54.76778,64.33604
286802.3,286.0891,411.9122,55.04326,64.10155
286818.4,288.3622,411.1382,55.25589,64.05919
286834.6,292.8297,415.4045,55.66728,64.29111
286851.6,299.6716,411.8003,56.28096,64.09544
286869,303.13,401.8956,56.58385,63.54315
286885,305.662,390.6079,56.80258,62.88654
286902.4,309.3517,373.5364,57.11679,61.83438
286928.3,311.3855,356.9491,57.28775,60.73792
286937.9,312.0657,336.778,57.34457,59.29549
286951.2,311.9998,317.2444,57.33907,57.77149
286969.3,313.2656,299.3374,57.44438,56.25143
286988.7,315.9995,280.3933,57.66978,54.50035
287001.2,316.715,257.5195,57.7283,52.16565
287025.4,307.9088,248.9203,56.99454,51.21916
287035.2,296.4627,247.7682,55.99557,51.08931
287051.8,301.0467,242.5718,56.40198,50.49448
287069.9,306.6032,239.6452,56.88323,50.15274
287087.9,306.7195,237.6292,56.89318,49.91445
287102.9,306.5556,225.7205,56.87916,48.4574
287122.7,303.1228,221.536,56.58323,47.92467
287138.1,297.8206,220.9455,56.11685,47.84859
287152.2,295.0461,219.9435,55.86822,47.71899
287169.9,290.3215,225.0439,55.43737,48.37201
287186.5,290.9333,226.3208,55.49371,48.53292
287203.9,293.9815,224.5493,55.77196,48.30941
287219.6,293.588,222.912,55.73626,48.10107
287235.4,291.8117,216.3954,55.57429,47.25484
287255.3,293.7319,209.5473,55.74932,46.33543
287271.4,297.3608,215.7349,56.07587,47.16751
287287.1,299.2195,228.0681,56.24101,48.75147
287305,299.837,230.8749,56.29556,49.0986
287320.8,300.3691,227.0052,56.34244,48.61876
287337.4,300.0579,222.4594,56.31503,48.04318
287353.7,297.7517,221.4814,56.11072,47.91763
287371.1,295.7319,224.4983,55.92997,48.30294
287388,295.7479,232.4425,55.93141,49.29038
287404.4,296.0495,239.5003,55.95851,50.13568
287422.6,296.5137,239.5314,56.00013,50.13935
287438.6,298.5589,237.1694,56.18248,49.85977
287454.6,300.6098,238.5961,56.36361,50.02902
287471.8,303.5638,242.2127,56.62151,50.45281
287488.6,311.8232,243.9362,57.32433,50.65213
287504.2,323.1511,254.2998,58.24641,51.8159
287521.7,313.8371,274.2179,57.49172,53.89497
287535.9,314.3582,263.4896,57.53479,52.79993
287554.8,320.1951,264.0694,58.01031,52.86057
287571.9,318.3056,273.0546,57.85775,53.77893
287587.8,318.7023,267.0174,57.88988,53.16624
287604.3,316.4447,268.1513,57.70621,53.28267
287621.9,313.5706,270.6434,57.46967,53.53635
287638.3,310.8148,271.1917,57.23994,53.59175
287657.3,307.6885,272.4579,56.97581,53.71916
287673.4,308.0478,275.9503,57.00636,54.0666
287692.1,310.1995,277.4191,57.18825,54.21101
287705.6,311.8003,278.1084,57.32242,54.27842
287722.6,311.7988,277.9464,57.32229,54.2626
287739.5,310.1678,275.3362,57.18558,54.00592
287754.7,307.05,273.1859,56.9214,53.79206
287772.6,306.8743,273.1967,56.9064,53.79314
287789.6,308.5652,274.5597,57.05025,53.92894
287808.8,309.9909,277.8851,57.17069,54.2566
287824.2,310.3551,280.0695,57.20133,54.46905
287839.9,310.5439,280.3414,57.21719,54.49534
287855.1,311.0674,280.3989,57.26111,54.5009
287874.3,310.7035,281.2129,57.23059,54.57937
287891.8,308.5285,282.3395,57.04715,54.6875
287908.2,304.8477,279.1293,56.73251,54.37788
287922.9,302.9352,275.01,56.56692,53.97361
287939.1,304.1903,275.2149,56.67575,53.99391
287955.2,308.05,275.6028,57.00655,54.03228
287973.5,310.8167,277.0626,57.2401,54.17604
287989.7,312.8323,279.8564,57.4084,54.44842
288008.2,313.9326,281.9379,57.49963,54.64902
288025.4,315.579,282.7941,57.63529,54.73097
288039.3,318.1125,283.1201,57.84208,54.76208
288054.7,319.9286,285.8652,57.98887,55.02219
288071.5,318.8397,281.2216,57.901,54.58021
288096.9,318.1452,279.8844,57.84473,54.45113
288106.8,316.5475,279.5804,57.71462,54.42167
288121.7,317.0331,279.627,57.75426,54.42619
288140,319.9448,279.6061,57.99017,54.42416
288155.9,322.8058,278.6594,58.21899,54.33216
288173.1,324.6817,278.1831,58.36743,54.28572
288190.2,325.2291,277.7952,58.41051,54.24781
288208.7,325.3534,278.1266,58.42029,54.2802
288225,326.2603,277.8406,58.49139,54.25225
288239.3,327.4222,278.2759,58.58207,54.29478
288256.6,328.4682,279.0181,58.66331,54.36707
288273.2,328.8633,279.0018,58.69389,54.36549
288290.3,329.3487,278.0319,58.7314,54.27095
288319.3,329.3364,277.7542,58.73045,54.2438
288327.7,329.6918,277.7465,58.75786,54.24305
288339.2,330.6198,278.2275,58.82923,54.29005
288355.3,331.0191,278.6089,58.85985,54.32724
288372.8,330.9808,278.592,58.85691,54.3256
288392.8,329.766,278.5633,58.76358,54.3228
288409.3,329.0134,278.8319,58.70551,54.34896
288422.8,328.8612,279.0402,58.69373,54.36922
288439.7,329.89,278.7058,58.77313,54.33669
288458.2,330.6885,278.9905,58.83451,54.36439
288475,331.2624,279.5261,58.87848,54.4164
288492,330.9194,279.5195,58.85221,54.41577
288508.5,330.7816,279.3944,58.84164,54.40363
288523.9,330.1678,278.8871,58.79451,54.35432
288541.5,329.8239,277.6266,58.76804,54.23133
288559.5,330.0679,277.9045,58.78682,54.2585
288574,330.6683,279.0406,58.83295,54.36926
288590.8,331.4098,279.7613,58.88976,54.43921
288606.7,332.0764,280.0158,58.94067,54.46385
288624.1,332.8396,279.79,58.99876,54.44199
288641.1,333.2072,278.9836,59.02668,54.36372
288657.5,333.8459,278.7616,59.07507,54.34211
288674.1,333.6954,278.6305,59.06367,54.32935
288690.7,333.2484,278.1931,59.0298,54.2867
288707.8,333.1805,277.1625,59.02465,54.18585
288723.7,333.6732,276.5737,59.062,54.12801
288741.7,334.1969,276.8227,59.10161,54.15249
288757.7,334.072,277.4095,59.09216,54.21006
288773.8,333.7043,277.4848,59.06435,54.21744
288792.5,333.5678,277.3813,59.05402,54.2073
288809.9,333.5048,277.4516,59.04924,54.21418
288824.1,333.7403,277.5593,59.06708,54.22473
288840,334.0641,278.0499,59.09157,54.27271
288857.7,333.7247,278.5825,59.0659,54.32467
288875.4,333.5261,279.2112,59.05086,54.38584
288892.7,335.6314,279.7733,59.20963,54.44037
288910.8,337.942,280.3619,59.38221,54.49731
288924.7,340.5869,280.625,59.57763,54.52272
288940.7,342.8731,280.6205,59.74472,54.52229
288957.8,344.4766,280.2646,59.86094,54.48791
288973.4,345.8306,279.779,59.95844,54.44093
288991.3,347.2205,279.1229,60.05794,54.37726
289009,348.1199,278.3896,60.122,54.30587
289027,348.2105,277.5785,60.12844,54.22662
289042.6,348.5179,276.8542,60.15027,54.15558
289060.2,348.3879,277.5567,60.14104,54.22448
289077.8,348.2072,277.7303,60.1282,54.24147
289094.4,347.1244,277.7251,60.05107,54.24096
289113.9,346.0563,277.7046,59.97464,54.23896
289131.6,344.9095,278.2136,59.89217,54.28869
289143.6,344.1927,279.4001,59.84042,54.40418
289160.4,344.1331,280.5582,59.83611,54.51628
289177.1,344.3443,281.6579,59.85138,54.62215
289192.3,345.2454,282.1201,59.91637,54.66649
289209.8,346.291,282.4436,59.99146,54.69746
289228.2,347.5862,282.8513,60.08401,54.73643
289243.6,349.4197,283.9459,60.21415,54.84068
289259.4,350.3587,284.9394,60.2804,54.93484
289274.8,350.5663,285.5377,60.29501,54.99134
289294.5,350.2592,285.6234,60.27339,54.99941
289310.6,349.9405,285.2589,60.25092,54.96503
289327.1,349.7222,284.3222,60.23552,54.8764
289345.4,349.557,283.6955,60.22385,54.81688
289361.6,349.1885,283.2178,60.19779,54.7714
289382.5,348.9492,282.7882,60.18085,54.73041
289394.9,348.9747,282.1905,60.18266,54.67323
289407.9,349.869,280.6169,60.24588,54.52194
289427.3,349.8704,279.868,60.24598,54.44954
289443.8,350.6841,280.0168,60.30329,54.46395
289460.2,351.778,280.2269,60.38002,54.48427
289478.8,352.3002,280.3755,60.41652,54.49863
289492.8,352.7556,280.2922,60.44829,54.49058
289510.7,353.5687,280.5011,60.50486,54.51076
289531.9,354.3169,280.7521,60.55673,54.53498
289545.3,354.8956,280.8047,60.59674,54.54006
289559.8,355.4487,280.6869,60.63489,54.5287
289575.6,355.6441,280.3269,60.64834,54.49394
289592.1,355.6328,280.1431,60.64757,54.47617
289609,355.2779,280.3098,60.62312,54.49228
289625.5,355.181,280.476,60.61643,54.50834
289643,355.4471,280.3157,60.63478,54.49286
289660.5,355.8495,280.0565,60.66247,54.46779
289677.1,356.0932,279.9546,60.67923,54.45792
289693.1,356.1294,279.9062,60.68171,54.45324
289713.4,356.2888,279.6987,60.69265,54.43314
289727.3,356.2718,279.2066,60.69149,54.38539
289749.8,355.9561,279.0396,60.6698,54.36916
289762.4,355.2701,279.1433,60.62258,54.37924
289776.8,354.2671,279.5882,60.55328,54.42242
289794.8,352.7755,280.5172,60.44967,54.51232
289812.4,351.138,280.6667,60.33517,54.52675
289831.1,350.3539,280.8372,60.28005,54.54319
289843.8,349.3729,281.1955,60.21083,54.5777
289860.7,348.65,281.3943,60.15965,54.59682
289877.4,348.1413,281.3968,60.12352,54.59706
289892.6,347.08,281.7328,60.0479,54.62934
289914,346.1228,281.53,59.97941,54.60986
289927,345.4181,281.2028,59.92879,54.5784
289944,344.8428,281.1085,59.88737,54.56933
289962.2,345.0838,281.0949,59.90473,54.56802
289976.3,345.5603,281.584,59.93902,54.61506
289993.7,345.5112,282.1815,59.93549,54.67237
290011.2,344.9823,282.2498,59.89742,54.67891
290028.2,343.6388,282.2577,59.80032,54.67967
290043.8,342.2319,282.6374,59.69802,54.716
290061.2,340.4622,283.3107,59.56845,54.78025
290077.3,338.6176,284.2103,59.43233,54.86578
290094.1,337.2047,284.5234,59.32733,54.89547
290110.9,336.6362,284.6569,59.2849,54.90811
290127.7,336.3193,284.9683,59.26119,54.93758
290144,336.1342,285.182,59.24734,54.95777
290162.3,336.2771,284.7279,59.25803,54.91483
290177,336.3113,284.5617,59.2606,54.8991
290193.5,336.3092,284.3674,59.26044,54.88069
290210.3,336.2165,284.1979,59.2535,54.8646
290228.4,335.8504,284.1624,59.22606,54.86124
290243.7,335.2867,284.0338,59.18373,54.84904
290261.3,334.8529,284.0916,59.15109,54.85452
290277.8,334.8601,284.0622,59.15164,54.85173
290294.9,335.1478,283.8609,59.17329,54.83261
290311.1,335.1795,283.6477,59.17567,54.81233
290327.2,335.1443,283.482,59.17303,54.79657
290343.5,335.5465,283.2101,59.20326,54.77066
290361.1,336.5356,282.8636,59.27737,54.7376
290382.8,336.9088,282.7292,59.30526,54.72477
290394.6,337.2305,282.4635,59.32926,54.69936
290409.8,337.3057,282.0665,59.33486,54.66135
290427.9,337.3213,281.3654,59.33602,54.59405
290446.7,337.5626,280.5974,59.35399,54.52006
290460.4,337.8562,279.5034,59.37584,54.4142
290477.6,337.8308,278.614,59.37394,54.32774
290493.4,337.6174,277.9804,59.35807,54.26593
290511,337.2282,277.7021,59.32908,54.23871
290528.1,337.127,277.4251,59.32154,54.21159
290546.6,337.2696,277.4207,59.33217,54.21116
