Time Stamp(ms),Intersection,,Angle,
,x,y,x,y
819883.8,318.7667,243.6324,57.89509,50.61713
819901.9,318.8263,243.5213,57.89992,50.6043
819919.5,318.8835,243.4194,57.90454,50.59254
819934.6,318.8847,243.3803,57.90464,50.58803
819952.4,318.8324,243.3562,57.90041,50.58525
819968.9,318.7686,243.3029,57.89525,50.57909
819984.2,318.8129,243.2863,57.89883,50.57717
820001.8,318.8808,243.2161,57.90433,50.56906
820018.6,318.9442,243.2143,57.90945,50.56886
820034.8,319.0507,243.2593,57.91806,50.57406
820052.8,319.0955,243.3563,57.92168,50.58526
820070.5,319.1107,243.4245,57.92291,50.59314
820085.4,319.0818,243.4941,57.92057,50.60117
820102.1,319.0695,243.5255,57.91958,50.60479
820118.5,319.0494,243.5949,57.91795,50.6128
820135.4,319.0055,243.5877,57.91441,50.61197
820153,318.9807,243.6885,57.9124,50.6236
820168.8,318.8695,243.8816,57.90341,50.64585
820185.8,318.7639,244.0988,57.89487,50.67086
820203.6,318.6294,244.3442,57.88398,50.69908
820220.4,318.4267,244.7837,57.86757,50.74954
820236.8,318.2309,245.2607,57.85169,50.80418
820253.2,317.9392,246.013,57.82801,50.89009
820270.2,317.7543,246.7796,57.81298,50.97732
820285.9,317.5681,247.8127,57.79784,51.09435
820303.2,317.2285,249.2066,57.77019,51.25132
820321.8,316.7511,250.5194,57.73125,51.39819
820335.8,316.0454,252.0925,57.67353,51.57294
820352.1,315.0181,253.9856,57.58918,51.78147
820368.7,314.0036,255.5777,57.5055,51.95537
820385,312.8374,257.0307,57.40882,52.1129
820401.9,311.1678,258.5088,57.26952,52.27202
820418.6,309.4623,259.7983,57.12613,52.40992
820434.3,307.5196,261.1659,56.96143,52.55523
820451.9,305.3215,262.5368,56.77331,52.69993
820468.8,302.685,264.0261,56.54515,52.85604
820487.4,300.2486,265.2591,56.33183,52.98444
820502.9,297.749,266.4776,56.11047,53.11059
820519.4,295.3502,267.5562,55.89563,53.22165
820534.9,292.356,268.9182,55.62407,53.36106
820554.4,290.5,269.8358,55.45383,53.45448
820569.9,288.4366,270.9826,55.26282,53.57064
820585.4,286.6184,272.0073,55.09298,53.6739
820602.1,285.073,272.865,54.94747,53.75996
820619.8,283.8204,273.3263,54.82876,53.80609
820635.4,282.2841,273.7914,54.68219,53.8525
820652.5,280.7511,274.3044,54.53489,53.90357
820670.3,279.5952,274.9571,54.42311,53.96837
820685.8,278.5313,275.6084,54.31969,54.03284
820701.6,277.0073,276.0995,54.17061,54.08131
820718.8,274.6138,276.1236,53.93431,54.08368
820735.2,272.8249,277.0186,53.75594,54.17173
820753.3,270.8744,278.0011,53.5597,54.26794
820771.1,268.6016,278.3515,53.32873,54.30215
820788.3,266.5024,278.5823,53.11315,54.32465
820804.6,264.5362,278.691,52.90925,54.33524
820822.3,262.1488,278.6114,52.65907,54.32749
820840.1,260.352,278.5083,52.46886,54.31744
820854.5,258.7046,278.4346,52.29301,54.31026
820870,256.9137,278.4294,52.10026,54.30975
820888.9,255.4497,278.3176,51.94143,54.29884
820905.1,254.1734,278.2854,51.80205,54.2957
820920.1,253.1243,278.1824,51.68683,54.28565
820937.1,252.5073,277.8397,51.61879,54.25217
820953,251.8157,277.6342,51.54229,54.23207
820970.7,251.1668,277.6506,51.47026,54.23367
820987.5,250.5032,277.8632,51.39637,54.25446
821006.1,249.766,278.0587,51.31402,54.27357
821026,249.107,277.7796,51.24014,54.24629
821041.3,248.6081,277.282,51.18405,54.19757
821054.9,248.0626,276.7917,51.12257,54.14944
821070.6,247.1621,276.4702,51.02071,54.11782
821088.6,246.083,276.3737,50.89807,54.10833
821105.3,244.7183,276.4118,50.74203,54.11207
821121.5,243.5549,276.1512,50.60818,54.08641
821139.3,242.5358,275.8603,50.4903,54.05772
821154.9,241.1951,275.9095,50.33433,54.06257
821174.2,240.0835,276.1179,50.20423,54.08312
821188.1,238.8633,276.2643,50.0606,54.09755
821203.5,237.9626,276.1348,49.95402,54.08479
821220.1,237.2995,275.6544,49.87524,54.03738
821238,237.0161,274.791,49.8415,53.9519
821254,237.3617,273.4082,49.88265,53.81427
821271.8,238.0593,272.3009,49.96548,53.7034
821287.9,238.8057,271.5013,50.0538,53.62298
821304.6,239.6711,270.9615,50.15578,53.56851
821320.6,240.7923,270.5801,50.28727,53.52995
821339,241.7546,270.2332,50.39955,53.4948
821354.1,242.7825,270.0685,50.5189,53.4781
821370.1,244.1794,270.143,50.68012,53.48565
821386.9,245.4944,270.2578,50.83089,53.49729
821403.4,246.9452,270.2306,50.99612,53.49454
821421.4,248.5208,270.1017,51.17423,53.48146
821437.1,250.1965,270.1493,51.36215,53.48629
821453.8,252.4991,270.1615,51.61788,53.48753
821470.7,255.0094,270.0206,51.89345,53.47324
821488,257.7516,269.8573,52.19065,53.45666
821503.8,261.0938,269.6848,52.54758,53.43913
821520.3,264.3174,269.4763,52.88644,53.41793
821536.4,267.9098,269.0239,53.25793,53.37184
821553.5,272.2903,268.5636,53.70234,53.32485
821571.4,276.54,268.335,54.12469,53.30148
821589.6,281.3356,268.3071,54.59118,53.29862
821605.3,285.8085,268.405,55.01686,53.30864
821623.3,289.9341,268.3598,55.40163,53.30401
821639.3,294.7006,268.1125,55.83703,53.2787
821653.9,299.6401,267.8611,56.27818,53.25294
821673.1,304.3773,267.2421,56.69191,53.18937
821689.7,308.7081,266.6376,57.06236,53.1271
821706.9,313.5136,265.9788,57.46494,53.05905
821723.8,318.2517,265.4037,57.85338,52.99945
821738.8,322.6967,264.7893,58.21032,52.93561
821754.1,327.8368,264.1914,58.61432,52.8733
821771.5,332.9195,263.9408,59.00483,52.84713
821787.8,337.9678,263.8132,59.38413,52.83379
821804.3,343.4305,263.8631,59.78522,52.83901
821821.4,349.2253,263.8522,60.20039,52.83786
821838.7,354.1667,263.858,60.54633,52.83847
821855.4,359.7727,263.6167,60.93003,52.81324
821871.4,365.0024,263.3081,61.27983,52.78092
821888.3,370.1092,263.0068,61.61405,52.74932
821904.3,375.3932,262.88,61.95244,52.736
821921.8,380.1506,262.7359,62.25082,52.72086
821937.6,384.5346,262.5353,62.52064,52.69976
821953.9,389.1951,262.3942,62.80222,52.68492
821971.8,393.4795,262.143,63.05642,52.65845
821988.6,397.9221,261.8728,63.3154,52.62996
822005.8,401.5743,261.5904,63.52486,52.60013
822021.1,405.5341,260.886,63.74856,52.52556
822037.7,409.2151,260.363,63.95337,52.47003
822053.7,413.3264,259.6902,64.17863,52.39839
822073.3,416.939,259.4258,64.3736,52.37017
822091.3,420.5191,259.3441,64.56412,52.36144
822108.3,423.7515,259.2526,64.73387,52.35167
822123.1,426.9429,259.3193,64.89941,52.3588
822139.7,429.6407,259.321,65.03777,52.35897
822155.6,432.6066,259.2725,65.18825,52.35379
822173.3,435.3245,259.1183,65.32465,52.3373
822190.6,437.7851,258.9561,65.44694,52.31995
822204.9,440.489,258.8267,65.58001,52.3061
822223.2,442.8235,258.6906,65.69382,52.29151
822238.9,445.0146,258.4888,65.79973,52.26988
822254.4,447.2633,258.2955,65.90753,52.24913
822272.3,449.3592,257.9502,66.00719,52.21202
822290.4,451.3998,257.5886,66.10349,52.1731
822305.6,453.4116,257.2316,66.19771,52.1346
822322.3,455.0544,257.0665,66.27413,52.11677
822338,456.5761,256.9687,66.34451,52.1062
822353.8,457.9273,257.1126,66.40667,52.12175
822372.3,459.1309,257.2095,66.46178,52.13221
822389.5,460.1346,257.252,66.50756,52.1368
822405.5,461.1183,257.2443,66.55226,52.13597
822421.8,461.9385,257.1939,66.58941,52.13053
822441.2,462.6259,257.2074,66.62046,52.13198
822457.1,463.2061,257.2046,66.64661,52.13168
822473.6,463.6362,257.1543,66.66595,52.12626
822493.1,463.9102,256.9679,66.67826,52.10611
822509.4,464.1267,256.8028,66.68797,52.08826
822522.4,464.0714,256.4172,66.68549,52.04652
822540.4,464.0728,256.0777,66.68555,52.0097
822557.4,463.9413,255.7996,66.67966,51.9795
822572.7,463.5435,255.4806,66.66178,51.9448
822591.6,463.2166,255.2715,66.64708,51.92203
822607.9,462.7207,255.2957,66.62473,51.92466
822623.9,462.3181,255.3079,66.60657,51.92599
822641.9,461.8862,255.3215,66.58704,51.92747
822657.3,461.4034,255.2563,66.56519,51.92037
822675.1,460.9675,255.0806,66.54542,51.90122
822692.3,460.3907,254.7442,66.51922,51.86449
822710.2,459.9281,254.544,66.49816,51.84262
822724.3,459.4201,254.4524,66.47499,51.8326
822741.1,458.8546,254.3688,66.44916,51.82344
822758.2,458.3338,254.3497,66.42532,51.82136
822773.8,457.7481,254.3739,66.39845,51.82401
822790.4,457.123,254.3214,66.36971,51.81826
822808.9,456.5932,254.2188,66.3453,51.80702
822823.9,456.0318,254.0054,66.31938,51.78364
822840.9,455.4575,253.8084,66.29282,51.76203
822858.6,454.9949,253.6728,66.27138,51.74715
822873.7,454.3314,253.4698,66.24055,51.72485
822897.2,454.0052,253.4349,66.22537,51.721
822907.9,453.6284,253.4253,66.20782,51.71995
822922.4,453.2768,253.4559,66.19141,51.72332
822941.2,452.9682,253.4726,66.177,51.72515
822957.5,452.6578,253.3476,66.16248,51.7114
822975.4,452.3654,253.1504,66.1488,51.6897
822991.9,452.0759,252.9041,66.13523,51.66258
823007.6,451.8249,252.6057,66.12345,51.62965
823022.6,451.6289,252.3265,66.11425,51.59882
823039.4,451.3901,252.0891,66.10303,51.57256
823055.6,451.1613,251.9129,66.09227,51.55305
823074.1,450.9535,252.0006,66.08249,51.56276
823090.2,450.7399,252.132,66.07243,51.57731
823107,450.5505,252.1203,66.0635,51.57602
823123.1,450.3737,252.0872,66.05516,51.57236
823140.1,450.2531,251.9542,66.04946,51.55763
823158,450.1275,251.8138,66.04353,51.54208
823174.7,449.9889,251.6558,66.03699,51.52456
823191.8,449.894,251.497,66.0325,51.50694
823210.8,449.8147,251.4913,66.02876,51.50631
823223.8,449.7103,251.5589,66.02382,51.51381
823240.4,449.6117,251.6109,66.01915,51.51958
823256.3,449.3705,251.6949,66.00773,51.52889
823273.7,449.1493,251.6579,65.99725,51.5248
823291.8,448.8885,251.7494,65.98488,51.53493
823307.2,448.5025,251.7284,65.96655,51.53261
823324.8,448.1926,251.6902,65.95181,51.52838
823340.3,447.8072,251.6893,65.93347,51.52827
823357.3,447.3072,251.7348,65.90963,51.53331
823374.4,446.7763,251.782,65.88426,51.53854
823391.9,446.1641,251.9317,65.85495,51.55514
823408.9,445.6091,252.1472,65.82832,51.57899
823424.5,445.1264,252.3259,65.80511,51.59875
823441.3,444.6675,252.4618,65.78301,51.61377
823457.2,444.2458,252.5427,65.76267,51.6227
823474.4,443.7963,252.5952,65.74094,51.62851
823490.9,443.3662,252.6313,65.72013,51.63248
823507,442.9865,252.7056,65.70173,51.64068
823523.3,442.7081,252.7262,65.68822,51.64296
823540.5,442.297,252.8867,65.66824,51.66066
823558.1,441.8846,253.1224,65.64816,51.68663
823574.5,441.3662,253.4932,65.62289,51.72741
823591.8,440.8279,253.9171,65.59659,51.77396
823609.1,440.1963,254.3746,65.56567,51.82408
823625.5,439.3977,254.8792,65.52647,51.87924
823641.6,438.5333,255.2898,65.4839,51.92402
823658,437.4769,255.6349,65.43169,51.96159
823674.4,436.1805,255.7706,65.36732,51.97634
823691.1,434.9172,255.9712,65.30431,51.99814
823707.4,433.5694,256.2257,65.23673,52.02576
823724,431.8313,256.6105,65.14908,52.06746
823740.8,429.9714,257.1455,65.05463,52.1253
823759.1,428.028,257.7188,64.95524,52.18712
823773.9,425.6516,258.4883,64.83268,52.26982
823791.1,423.3359,259.1225,64.71217,52.33775
823807.6,420.6224,259.8253,64.56957,52.4128
823824.3,417.9266,260.4709,64.42641,52.4815
823841.7,414.7997,260.8044,64.25848,52.51691
823859.2,412.1299,260.9009,64.11345,52.52715
823874.2,409.311,260.9641,63.95866,52.53384
823890.7,406.2999,261.0508,63.79141,52.54303
823907.6,403.2143,261.2057,63.61794,52.55944
823927.1,400.4573,261.4326,63.46113,52.58345
823940.8,397.2755,261.6905,63.27799,52.61071
823958.2,394.3902,262.1274,63.10989,52.65681
823975.4,391.274,262.556,62.92612,52.70194
823991.1,388.0351,262.9661,62.73264,52.74504
824009.4,385.0249,263.264,62.55052,52.77629
824022.3,381.3901,263.6073,62.3276,52.81225
824042.1,378.9504,263.7113,62.17609,52.82314
824055.9,376.0786,263.8008,61.99579,52.8325
824072,372.87,263.829,61.79178,52.83545
824090.7,370.0851,263.9027,61.6125,52.84314
824106.1,367.0404,263.9025,61.41407,52.84313
824124.4,364.0921,264.0338,61.2195,52.85685
824142.8,361.3091,264.1929,61.0336,52.87346
824159.9,358.5897,264.3163,60.84982,52.88633
824177.5,355.6559,264.4868,60.64915,52.9041
824194.4,352.9893,264.616,60.46457,52.91757
824213.4,349.8281,264.5868,60.24299,52.91452
824230,347.5948,264.6097,60.08463,52.91691
824242.4,344.976,264.5147,59.89697,52.90701
824258.9,342.3426,264.3985,59.70609,52.8949
824275.3,339.6871,264.2964,59.5114,52.88425
824292.4,336.9686,264.274,59.30972,52.88192
824309.6,334.4765,264.2842,59.12272,52.88298
824325.3,331.8237,264.3895,58.92138,52.89397
824342.2,329.1075,264.4442,58.71278,52.89966
824360.1,326.5442,264.445,58.51359,52.89975
824376.9,324.2958,264.4763,58.337,52.90301
824392.2,321.5395,264.4626,58.11808,52.90158
824410.5,319.165,264.3859,57.9273,52.89359
824426.9,316.6689,264.2904,57.72454,52.88363
824443.4,314.019,264.1987,57.50677,52.87406
824461.4,311.4969,264.1257,57.29707,52.86644
824478.1,309.2282,264.0907,57.10636,52.86278
824493,306.3387,264.1159,56.8606,52.86542
824510.3,302.7305,264.2087,56.54911,52.87511
824535.1,299.7244,264.3555,56.28562,52.89042
824549.1,297.2993,264.5039,56.07038,52.90589
824562.1,294.4045,264.6635,55.81026,52.92251
824578.4,292.0418,264.6592,55.59536,52.92207
824592.2,288.8876,264.6597,55.30473,52.92212
824612.2,286.047,264.6299,55.0393,52.91902
824627.9,283.5546,264.5027,54.80348,52.90576
824643.5,281.1122,264.3402,54.56968,52.88882
824659.2,278.519,264.1965,54.31848,52.87383
824677.3,276.0237,264.1084,54.07383,52.86464
824693.3,273.6341,264.0326,53.83682,52.85672
824710.5,271.2463,263.9023,53.59726,52.8431
824727.7,269.0731,263.8296,53.37685,52.8355
824742.4,266.7988,263.7391,53.14373,52.82604
824758.4,264.619,263.6536,52.91787,52.8171
824774.3,262.3307,263.6674,52.67823,52.81854
824791.5,260.2168,263.6999,52.45448,52.82194
824807.9,257.971,263.5717,52.21426,52.80853
824825.2,255.7276,263.4139,51.97168,52.792
824842.3,253.5013,263.1627,51.72831,52.76567
824858.6,251.2071,263.0108,51.47475,52.74973
824876.6,249.3106,262.8562,51.26299,52.7335
824892.7,247.5,262.6376,51.05898,52.71053
824908.9,245.5179,262.2865,50.83358,52.67358
824925.9,243.7899,262.0358,50.63528,52.64716
824942.6,241.9877,261.7989,50.42666,52.62215
824960.2,240.2754,261.501,50.22675,52.59069
824977.1,239.0764,261.2486,50.08574,52.56398
824991.2,237.528,260.9153,49.90242,52.52868
825008.9,236.4858,260.6341,49.77824,52.49883
825026.6,235.4215,260.3837,49.65076,52.47223
825043.1,234.4402,260.1249,49.53264,52.4447
825059.5,233.608,259.9122,49.43201,52.42205
825074.3,232.8116,259.6633,49.33532,52.39552
825092.4,232.1762,259.2168,49.2579,52.34784
825112.1,231.5381,258.9336,49.17992,52.31754
825125.6,230.9323,258.629,49.10565,52.28492
825143.8,230.425,258.3619,49.04329,52.25626
825159.8,230.0617,258.1966,48.99852,52.23851
825175.4,229.7978,257.917,48.96596,52.20845
825192.7,229.5399,257.6707,48.93409,52.18195
825209.5,229.337,257.4474,48.909,52.15788
825226.5,229.2254,257.1636,48.89518,52.12725
825244.4,229.0734,256.7814,48.87635,52.08595
825259.1,228.9344,256.4435,48.85912,52.04937
825275,228.7924,256.0418,48.84151,52.00581
825291.9,228.7082,255.6834,48.83106,51.96687
825309,228.5922,255.2856,48.81666,51.92357
825326.1,228.5225,255.0477,48.80799,51.89762
825342.4,228.5621,254.7358,48.81292,51.86357
825358.7,228.589,254.4736,48.81626,51.83492
825374.6,228.7204,254.1289,48.83258,51.79718
825397.1,228.8548,253.9905,48.84925,51.78201
825408.7,229.1013,253.6771,48.87981,51.74762
825425.4,229.3605,253.3727,48.9119,51.71416
825442.3,229.6885,252.9306,48.95246,51.66549
825463.1,229.9061,252.5932,48.97932,51.62828
825482.3,230.0012,252.394,48.99106,51.60628
825492.4,230.182,252.1724,49.01336,51.58178
825508.7,230.3717,251.9405,49.03672,51.55611
825525.6,230.602,251.8086,49.06506,51.5415
825542.1,230.8761,251.6546,49.09874,51.52443
825559.4,231.0998,251.4406,49.1262,51.50069
825575.1,231.2479,251.14,49.14437,51.46728
825592.4,231.417,251.0011,49.16508,51.45184
825609.1,231.7085,250.8808,49.20077,51.43845
825628.8,232.2444,250.592,49.26623,51.40628
825653.4,232.4185,250.4485,49.28746,51.39027
825662.3,232.7458,250.1741,49.32732,51.35965
825676,233.1029,249.9448,49.37073,51.33402
825692.6,233.5958,249.6788,49.43053,51.30425
825710.6,234.1985,249.4244,49.50346,51.27575
825728.6,234.7955,249.0951,49.57547,51.23881
825743.7,235.4202,248.7066,49.65062,51.19514
825761.4,235.9909,248.4275,49.71904,51.16371
825778.5,236.5476,248.1372,49.78563,51.13099
825794.1,237.2128,247.8632,49.86493,51.10005
825810.6,237.8656,247.5862,49.94251,51.06874
825827.6,238.4837,247.3,50.01574,51.03635
825844.1,238.9908,247.0888,50.07565,51.0124
825861,239.4483,246.9777,50.12957,50.9998
825878.4,239.8694,246.8608,50.17909,50.98654
825895.3,240.3412,246.7024,50.23446,50.96855
825913.6,240.6621,246.5879,50.27203,50.95553
825931.4,240.8087,246.4539,50.28919,50.9403
825947.8,240.9485,246.3384,50.30553,50.92715
825963.7,241.0437,246.2237,50.31665,50.9141
825979.2,241.1206,246.1077,50.32564,50.90089
825995.7,241.2547,245.9007,50.34129,50.87729
826013,241.3275,245.6532,50.34978,50.84904
826030.3,241.3756,245.4475,50.3554,50.82554
826047.3,241.51,245.3191,50.37106,50.81086
826062.8,241.7194,245.0932,50.39545,50.785
826081.1,242.0942,244.9264,50.43904,50.76589
826097.3,242.4472,244.7386,50.48004,50.74436
826113,242.8525,244.5107,50.527,50.7182
826131.9,243.223,244.3361,50.56986,50.69814
826147.3,243.7258,244.2039,50.6279,50.68295
826164.9,244.2387,244.0261,50.68694,50.66249
826181,244.7451,243.8721,50.74511,50.64475
826196.2,245.3052,243.6794,50.80926,50.62254
826213.3,245.817,243.495,50.86774,50.60127
826231,246.377,243.3055,50.93154,50.5794
826246.1,247.0984,243.1182,51.01349,50.55774
826262.4,247.8707,242.9443,51.1009,50.53763
826279,248.6499,242.6958,51.18876,50.50886
826295.9,249.4698,242.5344,51.28083,50.49015
826313.4,250.3695,242.423,51.38146,50.47723
826329.9,251.606,242.2599,51.51903,50.45829
826348.3,252.8304,242.1963,51.65445,50.45091
826363.3,254.4181,242.1644,51.82884,50.4472
826379.9,255.9791,242.0747,51.999,50.43678
826397.3,257.6389,241.9439,52.17851,50.42157
826413.5,259.6971,241.8664,52.39913,50.41256
826430.7,261.8407,241.803,52.62657,50.40518
826445.8,264.1021,241.6906,52.86397,50.3921
826462.7,266.7269,241.4437,53.13632,50.36333
826480.3,268.9182,241.1484,53.36106,50.32889
826495.8,271.0122,240.9456,53.57364,50.30519
826511.9,273.8653,240.6999,53.85987,50.27646
826529.3,276.4966,240.535,54.12042,50.25716
826544,279.4636,240.2847,54.41034,50.22783
826561.2,282.3219,240.0799,54.68581,50.20381
826578.8,285.2033,239.8911,54.95979,50.18164
826595,288.1486,239.8072,55.23601,50.17179
826612.4,290.8601,239.7913,55.48698,50.16992
826628.9,293.4793,239.851,55.72639,50.17693
826644.7,295.8939,239.9729,55.94453,50.19125
826662.1,298.0721,240.1255,56.13923,50.20916
826678.2,300.3437,240.3573,56.3402,50.23635
826694.6,302.4839,240.5021,56.52763,50.25331
826711.4,304.7349,240.6709,56.72279,50.27307
826728.9,307.0851,240.8853,56.92439,50.29815
826744.7,309.7964,241.0336,57.15431,50.31548
826762.9,312.615,241.0465,57.39032,50.31698
826778.9,315.2572,241.0145,57.60885,50.31325
826795.3,318.1254,240.9256,57.84313,50.30286
826812.8,320.9427,240.8215,58.07032,50.29069
826829.8,323.6717,240.7833,58.28766,50.28622
826845.9,326.5068,240.7125,58.51067,50.27794
826862.4,329.5775,240.7266,58.74905,50.27959
826878.9,332.2984,240.7073,58.95758,50.27732
826894.8,335.2562,240.7591,59.18144,50.28339
826912.1,337.9274,240.6466,59.38112,50.27023
826928.8,340.59,240.5565,59.57785,50.25968
826945,343.2055,240.4794,59.76888,50.25064
826961.6,345.9424,240.4133,59.96646,50.2429
826979.3,348.5071,240.3378,60.14951,50.23406
826995.7,350.9633,240.286,60.32291,50.22799
827012.3,353.3656,240.1517,60.49075,50.21223
827029.4,355.584,240.0878,60.6442,50.20473
827045.4,358.0089,239.9986,60.8103,50.19426
827063.6,360.1638,239.9958,60.95646,50.19394
827079.8,362.2065,240.0192,61.09378,50.19669
827095.6,364.196,240.0342,61.2264,50.19844
827112.6,365.7097,239.9088,61.32655,50.18372
827129.8,367.1978,239.785,61.42439,50.16917
827147.3,368.3036,239.6666,61.4967,50.15526
827163.4,369.3167,239.5976,61.56266,50.14714
827179.3,370.2733,239.5519,61.62468,50.14176
827195.6,371.1574,239.5051,61.68177,50.13626
827212.9,371.9803,239.3464,61.73473,50.11757
827229.6,372.8762,239.2387,61.79218,50.10488
827245.5,373.821,239.1272,61.85254,50.09174
827261.9,375.0232,239.0905,61.92899,50.08741
827278.9,376.2989,239.0276,62.0097,50.07998
827294.8,377.7308,239.0332,62.09978,50.08065
827312.4,379.1441,239.1427,62.18818,50.09356
827329.4,380.5675,239.0879,62.27669,50.0871
827345.1,382.1906,239.0686,62.37698,50.08483
827362.2,383.8834,239.0462,62.48087,50.08218
