Time Stamp(ms),Intersection,,Angle,
,x,y,x,y
584670.5,319.4517,244.3945,57.95044,50.70485
584689.9,320.0468,244.2753,57.99838,50.69115
584707.7,320.4968,244.1543,58.03455,50.67724
584722.9,320.8704,244.0631,58.06452,50.66674
584740.4,321.1726,243.9907,58.08873,50.65841
584757.2,321.3958,243.9896,58.10659,50.65829
584773.3,321.6673,244.0378,58.12828,50.66383
584790.3,321.9468,244.0316,58.1506,50.66312
584807.8,322.1379,243.9496,58.16583,50.65368
584823.8,322.2888,243.8189,58.17786,50.63863
584841.9,322.4228,243.6122,58.18853,50.6148
584853.9,322.6174,243.2377,58.20401,50.57155
584873.5,322.9784,242.8077,58.2327,50.52182
584891.1,323.4056,242.4979,58.26659,50.48592
584908.8,323.7285,242.3304,58.29216,50.46647
584925.2,324.0692,242.0731,58.3191,50.4366
584938.1,324.5667,241.5139,58.35837,50.37151
584958.3,325.1373,241.1175,58.4033,50.32527
584974.8,325.6464,240.9962,58.44329,50.3111
584991.4,325.897,241.3487,58.46294,50.35225
585007.8,325.9612,241.6325,58.46797,50.38534
585024.3,326.1299,241.5104,58.48118,50.37111
585040.2,326.4152,241.2677,58.50351,50.34281
585056.9,326.7214,241.2918,58.52743,50.34562
585073,326.8239,241.9789,58.53544,50.42564
585089.3,326.5833,242.9583,58.51665,50.53925
585108.1,325.8108,244.7681,58.45618,50.74774
585127.2,325.2049,245.7029,58.40862,50.85471
585140.1,324.6393,246.618,58.36409,50.95896
585155.7,323.4558,247.6697,58.27057,51.07818
585172.3,321.8014,248.5976,58.13899,51.18288
585190.1,319.8234,249.2106,57.9804,51.25177
585206.5,316.6166,249.7518,57.72026,51.31243
585226.2,313.8486,250.3384,57.49268,51.378
585240.6,310.6599,251.2034,57.22693,51.47433
585255.8,307.2567,252.4361,56.93903,51.61093
585271.6,303.4743,254.1119,56.61374,51.79531
585289.3,299.4326,256.655,56.25985,52.07227
585305.5,295.5651,259.5744,55.91497,52.38604
585322.1,291.529,263.7081,55.54839,52.8228
585338.8,287.6833,267.8487,55.19262,53.25166
585355.3,283.7633,272.5014,54.82333,53.72352
585372.8,279.9506,278.0992,54.45754,54.27752
585390.4,276.6749,283.1981,54.13796,54.76952
585405.9,273.0724,288.3736,53.7807,55.25696
585423.3,269.5837,293.9667,53.42885,55.77062
585439.5,266.4666,299.3239,53.10946,56.25024
585455.1,263.0003,305.6735,52.74863,56.80356
585474.1,260.1852,310.1576,52.45113,57.18472
585489.7,256.9445,313.7975,52.10358,57.48845
585506,253.3252,314.9674,51.70895,57.58501
585523.3,249.8304,315.9369,51.32122,57.66464
585539.8,246.5066,316.791,50.9463,57.73451
585555.4,243.5072,317.1908,50.60268,57.76712
585572.8,240.5489,317.6625,50.25879,57.80552
585590.3,237.4674,317.7019,49.89521,57.80872
585608.8,234.6488,318.3025,49.55779,57.85749
585624.9,232.3011,319.3812,49.27314,57.94475
585642.9,230.3421,320.7258,49.03308,58.05293
585660.3,228.6342,321.8137,48.82188,58.13997
585676.1,226.9555,322.6093,48.61253,58.20336
585692.1,225.5155,323.1897,48.43156,58.24947
585707.3,224.511,323.7091,48.30455,58.29062
585723.4,224.2797,323.6536,48.27522,58.28623
585739.9,223.7915,323.6815,48.21319,58.28844
585755.9,223.5824,323.6681,48.18658,58.28738
585773.2,223.4351,323.7346,48.16781,58.29264
585790.9,223.6206,323.7709,48.19144,58.29551
585807.4,224.2234,323.6286,48.26807,58.28426
585824.2,224.7089,323.3749,48.32962,58.26415
585840.9,225.2155,323.0544,48.3937,58.23873
585857.8,225.8781,322.6324,48.47725,58.2052
585874.5,226.396,322.2584,48.54237,58.17543
585893.4,227.0759,321.9331,48.6276,58.14951
585910.4,227.6035,321.6013,48.69355,58.12302
585928.6,228.1022,321.2186,48.75572,58.09241
585945.4,228.4545,320.8435,48.79955,58.06237
585962.5,228.7204,320.4347,48.83257,58.02956
585978.8,229.0519,319.817,48.87369,57.97989
585994.3,229.4352,319.1097,48.92115,57.92283
586010.5,229.9271,318.0858,48.98192,57.83991
586031.4,230.4016,316.7486,49.04041,57.73104
586046.4,230.7969,315.3344,49.08902,57.6152
586062.2,231.2314,313.7815,49.14235,57.48713
586078.3,231.7033,311.7147,49.20013,57.31527
586095,232.1853,309.8501,49.25901,57.15884
586111.8,232.687,307.9135,49.32016,56.99495
586127.2,233.2352,305.5691,49.38679,56.79459
586146.6,233.8208,303.1207,49.45778,56.58305
586159.8,234.3428,300.2371,49.52088,56.33082
586175.5,234.7587,296.7726,49.57104,56.02332
586193.8,235.0285,293.6771,49.60352,55.74435
586210.7,235.3458,290.7257,49.64167,55.47461
586227.9,235.6914,287.7817,49.68316,55.20181
586244.8,235.9475,284.974,49.71385,54.93812
586260.3,236.166,282.2669,49.74,54.68055
586277.3,236.3716,279.8748,49.76459,54.45021
586293.1,236.6153,277.2448,49.79371,54.19392
586311.2,236.8043,274.7578,49.81626,53.9486
586327.4,236.9592,272.0925,49.83472,53.68248
586344.3,236.9719,269.7238,49.83624,53.4431
586361.9,237.0548,267.8705,49.84611,53.2539
586377.5,237.3076,265.7029,49.87621,53.03048
586394,237.7163,263.5303,49.92479,52.80419
586411.6,238.1231,261.6133,49.97304,52.60255
586427.4,238.765,260.2087,50.04899,52.45362
586444.3,239.4715,258.7674,50.13229,52.29975
586459.9,240.558,257.0916,50.25985,52.11948
586477.4,241.772,255.5013,50.40157,51.94705
586498.1,243.3295,253.8937,50.58216,51.77139
586513.6,245.1581,252.5206,50.79243,51.62026
586527,247.2302,251.1219,51.02844,51.46527
586543.1,249.8205,249.7496,51.32011,51.31219
586561.1,253.3227,248.4949,51.70866,51.17131
586578,256.7757,247.4228,52.08534,51.05025
586593.8,261.674,246.2537,52.60896,50.91751
586612.3,266.1912,245.3847,53.08101,50.81836
586628.3,272.0298,244.5321,53.67617,50.72066
586645.3,277.7804,243.7636,54.24637,50.63225
586661.8,283.602,243.1022,54.80799,50.55589
586678.3,290.2004,242.5922,55.4262,50.49685
586695.2,296.9009,242.2229,56.03479,50.454
586712.6,303.1821,241.972,56.58838,50.42484
586728.6,310.2994,241.849,57.19665,50.41054
586744.9,317.0948,241.7171,57.7593,50.39519
586761.4,324.136,241.591,58.32438,50.3805
586778.6,331.3035,241.5394,58.88163,50.37449
586794.5,338.4418,241.6571,59.41931,50.3882
586811.9,345.4699,242.0054,59.93253,50.42873
586829.3,352.032,242.2807,60.39779,50.46072
586844,358.8278,242.5096,60.86599,50.48727
586861.4,365.4727,242.7776,61.31091,50.51833
586879.1,371.2168,243.1255,61.6856,50.55859
586894.4,377.5766,243.4454,62.09011,50.59555
586911.8,383.5934,243.8545,62.46312,50.64273
586928.4,389.9508,244.0818,62.84738,50.6689
586945,396.6297,244.5176,63.24053,50.719
586964.1,402.7185,245.2212,63.58987,50.79966
586979.9,408.7198,246.3078,63.92598,50.92367
586996.8,415.5534,247.9671,64.29914,51.11179
587013.8,421.695,249.4187,64.62612,51.27512
587029.5,428.3287,251.192,64.97066,51.47307
587047.4,434.2163,252.8738,65.2692,51.65923
587064.6,439.9175,254.7675,65.552,51.86705
587079.7,444.9166,256.4333,65.79501,52.04826
587097.8,449.7942,258.1491,66.02778,52.23341
587112.7,454.318,260.051,66.23993,52.43684
587132.4,457.9495,261.6749,66.40769,52.60906
587146.4,460.8752,263.2336,66.54123,52.7731
587162.5,462.766,264.7144,66.62678,52.92781
587178.8,464.7817,266.1994,66.71733,53.08186
587195.7,466.2119,267.7207,66.78117,53.23853
587212.3,466.4426,269.5372,66.79144,53.42412
587230.3,466.6346,271.1891,66.79998,53.59149
587248,465.857,272.7616,66.76537,53.7496
587264.1,465.4041,274.3237,66.74516,53.90549
587282.8,464.2323,275.6749,66.69271,54.03941
587298.5,463.1587,276.8939,66.64447,54.15948
587314.3,461.9163,277.7849,66.58841,54.2468
587333.1,460.6057,278.3495,66.52899,54.30196
587348.9,459.6305,279.1046,66.4846,54.37548
587365.9,458.7315,279.789,66.44353,54.44189
587382.2,457.6821,280.5194,66.39542,54.51254
587398.3,456.6152,281.1512,66.34631,54.57344
587415.3,455.5853,281.5733,66.29873,54.61403
587432.6,454.7668,281.9594,66.26079,54.65108
587448.7,454.0931,282.3332,66.22947,54.68689
587465.1,453.5598,282.7005,66.20462,54.72203
587481.3,453.1814,283.0871,66.18697,54.75893
587498.4,452.7625,283.4998,66.16738,54.79826
587514.7,452.2688,283.7939,66.14427,54.82624
587532.9,451.7756,284.021,66.12114,54.84782
587548.7,451.2418,284.334,66.09605,54.87752
587566.4,450.7626,284.6641,66.07349,54.9088
587582.8,450.3763,285.0463,66.05528,54.94495
587597.9,449.964,285.3912,66.03581,54.97752
587614.4,449.461,285.7504,66.01202,55.01138
587633.4,449.0702,285.8728,65.9935,55.02291
587648.1,448.6411,286.0386,65.97314,55.03851
587667.2,448.3753,286.126,65.9605,55.04673
587682.7,448.2941,286.2789,65.95664,55.0611
587699.3,448.2535,286.5415,65.95471,55.08576
587716.1,448.2694,286.8933,65.95547,55.11875
587734.5,448.1626,287.1727,65.95039,55.14491
587750.9,448.0032,287.3727,65.9428,55.16361
587766.6,447.8991,287.6163,65.93784,55.18637
587783.4,447.7476,287.8617,65.93063,55.20927
587800.3,447.5075,288.2135,65.91918,55.24206
587815.3,447.0733,288.6754,65.89846,55.28502
587831.6,446.6153,289.1356,65.87656,55.32773
587850.8,446.1048,289.581,65.85211,55.36898
587865.4,445.4489,290.1369,65.82063,55.42035
587883.3,444.8082,290.5548,65.78979,55.45887
587899.6,443.8667,290.9752,65.74435,55.49755
587916.2,442.9713,291.3409,65.70099,55.53114
587932.9,442.0132,291.6334,65.65443,55.55796
587950.8,440.9626,291.9172,65.60318,55.58395
587969.5,439.9396,292.1453,65.55309,55.60481
587983.1,438.5954,292.3639,65.48696,55.62479
587999.4,437.2224,292.47,65.41908,55.63448
588023,435.4779,292.3017,65.33231,55.61911
588034.3,434.2207,292.254,65.26942,55.61475
588048.8,432.8779,292.208,65.20193,55.61055
588065.4,431.6714,292.1836,65.14098,55.60831
588082.4,430.734,292.0614,65.09344,55.59715
588100.1,429.994,292.0138,65.05579,55.59279
588115.8,429.3723,292.1243,65.02407,55.6029
588131.4,428.8018,292.2849,64.9949,55.61757
588149.5,428.1889,292.5275,64.96349,55.63972
588165.6,427.6127,292.632,64.9339,55.64925
588182,427.1044,292.568,64.90774,55.64342
588198.9,426.7982,292.3955,64.89195,55.62767
588215.6,426.3808,292.165,64.87041,55.60662
588234.4,426.0373,291.9087,64.85265,55.58317
588252.7,425.6666,291.3923,64.83346,55.53585
588269.9,425.226,290.9552,64.81061,55.49572
588285.2,424.856,290.5044,64.7914,55.45423
588301.5,424.4644,289.9068,64.77103,55.39911
588319.9,424.2411,289.4125,64.75941,55.35339
588333.1,423.9588,288.9803,64.74469,55.31333
588350.7,423.6249,288.5523,64.72726,55.27358
588367.9,423.2559,288.0047,64.70798,55.2226
588383.8,422.7995,287.3462,64.6841,55.16114
588400.5,422.3348,286.7683,64.65973,55.10704
588417.7,421.8677,286.2164,64.6352,55.05523
588434.6,421.1868,285.2859,64.59936,54.96758
588451.8,420.4544,284.2564,64.56069,54.87016
588468.6,419.5419,282.9083,64.51237,54.74187
588485,418.7225,281.8867,64.46884,54.64411
588501.3,417.9688,281.1346,64.42867,54.57184
588518.2,417.3315,280.2568,64.39462,54.48716
588538.3,416.8817,279.2596,64.37052,54.39054
588553.8,416.3414,277.7329,64.34154,54.24172
588568.3,415.8734,276.5025,64.31638,54.12101
588584.2,415.5619,275.205,64.2996,53.99294
588602.7,415.4464,274.0808,64.29337,53.88133
588620.5,415.3745,272.9859,64.2895,53.77206
588636.6,415.2978,271.9682,64.28536,53.66998
588651.4,415.2137,270.6639,64.28083,53.53842
588669.6,415.1368,269.5504,64.27668,53.42546
588684.4,414.9207,268.3422,64.26501,53.30221
588701.5,414.7016,267.1068,64.25317,53.17544
588718.6,414.5448,266.0706,64.2447,53.06853
588735.2,414.3914,265.2533,64.2364,52.98384
588751.9,414.1982,264.2786,64.22593,52.88239
588770.1,413.9002,263.3427,64.20979,52.78455
588787.1,413.6527,262.5351,64.19636,52.69975
588802.3,413.3402,261.6733,64.17938,52.6089
588818.9,412.9612,261.0094,64.15877,52.53865
588836.2,412.5748,260.5477,64.13772,52.48966
588852.4,412.0068,260.268,64.10673,52.45993
588868.8,411.3741,259.9203,64.07212,52.42292
588886.1,410.7322,259.5278,64.03691,52.38106
588903.6,409.9735,258.8774,63.9952,52.31153
588920.6,409.2661,258.0737,63.95618,52.2253
588938,408.6666,257.4029,63.92303,52.15308
588952.6,407.9862,256.6786,63.88532,52.07483
588970.5,407.3502,256.1479,63.84998,52.01732
588986.6,406.7638,255.7372,63.81731,51.97271
589002.6,406.1067,255.5214,63.78061,51.94924
589026.3,405.3782,255.6088,63.73982,51.95876
589037.6,404.7658,255.688,63.70543,51.96736
589052.6,403.8843,256.3865,63.65578,52.0432
589070.8,402.829,257.4627,63.59613,52.15953
589089.9,401.3989,259.0751,63.51487,52.33269
589114.1,400.4258,260.5906,63.45933,52.49422
589123.6,399.3459,262.2376,63.39742,52.66842
589136.5,397.972,264.2737,63.31828,52.88189
589152.5,396.329,266.872,63.22306,53.15127
589173.4,394.5049,269.9537,63.11661,53.46645
589194,392.8791,272.6985,63.02106,53.74328
589207.2,391.4959,274.9036,62.93928,53.96307
589222.8,389.8742,277.1357,62.84281,54.18321
589241.8,388.4023,278.7053,62.7547,54.33663
589255.4,387.1104,280.0413,62.67693,54.46632
589270.9,385.8064,281.688,62.59801,54.62505
589295.3,384.9044,282.8026,62.54318,54.73178
589310.3,384.4589,283.2817,62.51602,54.77749
589320.9,383.8702,283.7897,62.48006,54.82584
589337.6,383.405,284.3249,62.45158,54.87665
589354.1,383.1748,285.0202,62.43747,54.94249
589373.1,382.9883,285.813,62.42603,55.01728
589389.6,382.9729,286.8502,62.42508,55.11471
589409.7,382.869,287.8904,62.4187,55.21196
589423.8,382.5796,289.3383,62.40091,55.34652
589440,382.0372,291.0089,62.36753,55.50065
589457.9,381.3113,292.5723,62.32273,55.64381
589472.5,380.348,294.3801,62.26307,55.80806
589490.9,379.4133,295.7649,62.20496,55.93294
589506.7,378.2051,297.1254,62.12951,56.05485
589523.3,376.9479,298.5687,62.05059,56.18335
589540.8,375.6323,299.9948,61.96758,56.30947
589556.1,374.0629,301.2513,61.86795,56.41991
589571.3,372.4375,302.4633,61.76408,56.52584
589589.9,370.8823,303.3607,61.66402,56.60389
589605.5,369.2732,304.1828,61.55983,56.67511
589621.6,367.7926,305.0287,61.46333,56.74811
589638,366.1813,305.8063,61.35762,56.81496
589654.6,364.4478,306.3291,61.2431,56.85978
589672.4,362.5086,306.9018,61.11399,56.90875
589692.1,361.3067,307.174,61.03344,56.93197
589704.9,359.7459,307.4455,60.92822,56.95512
589721.3,358.2021,307.9792,60.82346,57.00052
589738.4,356.653,308.6237,60.71764,57.05521
589754.1,354.9864,309.4067,60.603,57.12144
589772.3,353.3042,310.3663,60.48647,57.20228
589789.3,351.7232,311.227,60.37619,57.27448
589807.9,350.147,312.1663,60.26548,57.35296
589823.3,348.5738,313.2754,60.15424,57.44519
589838.8,347.2653,314.3833,60.06113,57.53687
589854,345.9085,315.8137,59.96403,57.65454
589872.4,344.8,317.2552,59.88428,57.77237
589891.8,343.9323,318.5328,59.82158,57.87616
589907.8,343.1952,319.7625,59.76813,57.97549
589925.6,342.909,321.0891,59.74733,58.08205
589942.7,342.8352,321.9892,59.74197,58.15398
589957,342.9348,322.8672,59.74921,58.22387
589972.3,343.2496,323.6338,59.77208,58.28466
589991.9,344.1529,324.1087,59.83754,58.32222
590007.3,345.0984,324.4974,59.90579,58.35291
590022.1,346.1339,324.8818,59.98021,58.3832
590040.1,347.5357,325.2054,60.08042,58.40865
590056,348.8665,325.6798,60.17499,58.44591
590072.6,350.3851,326.2993,60.28225,58.49445
590090.5,352.2878,326.9722,60.41566,58.54701
590108.8,353.822,327.7681,60.52243,58.60898
590121.8,355.1024,328.8148,60.61101,58.69014
590146.2,355.5879,329.4733,60.64447,58.74102
590158.9,355.5912,330.2403,60.6447,58.80008
590173.4,354.214,330.5937,60.54961,58.82722
590192.2,351.9073,330.602,60.38906,58.82787
590207.6,347.0023,330.313,60.04235,58.80567
590223.8,342.2633,330.1624,59.70032,58.79409
590240.1,337.5544,329.9829,59.35338,58.78028
590256.8,332.7098,329.817,58.98889,58.76751
590273.6,328.3224,329.6133,58.65201,58.75181
590290.3,324.1656,329.3664,58.32671,58.73277
590306.9,319.937,328.8097,57.98955,58.68975
590324,316.3772,328.133,57.7007,58.63732
590340.3,313.1337,327.101,57.43343,58.55705
590358,310.1924,326.3027,57.18764,58.49471
590373,306.9407,325.4091,56.91207,58.42466
590392.1,303.6969,324.5776,56.63305,58.35923
590408.6,300.2262,323.7336,56.32986,58.29257
590426.6,296.659,323.0567,56.01315,58.23891
590441.1,293.2223,322.547,55.70303,58.19841
590457.7,289.9439,321.8073,55.40253,58.13946
590473.6,285.7163,320.8402,55.00817,58.0621
590491.2,281.3602,320.081,54.59355,58.00114
590509.4,277.6408,319.6699,54.23271,57.96803
590523.9,273.7762,319.4707,53.85099,57.95197
590540.8,269.9572,319.1567,53.4668,57.92663
590557.1,266.0178,318.7193,53.06308,57.89126
590574.3,261.548,318.3578,52.59565,57.86198
590593.2,257.7476,318.2542,52.19022,57.85358
590610.4,254.6725,318.3326,51.85667,57.85993
590625.8,251.8439,318.2035,51.54541,57.84946
590643.4,249.5918,317.693,51.29451,57.808
590660.3,247.3733,316.9574,51.04465,57.74809
590675.9,245.3675,316.3211,50.81639,57.69611
590692.9,243.8593,315.9501,50.64328,57.66573
590710.2,242.8499,315.4609,50.5267,57.62559
590728.4,242.0538,315.0458,50.43436,57.59146
590742.1,241.2595,314.2815,50.34184,57.52846
590761.4,240.4233,313.6079,50.24408,57.47275
590776.9,239.6671,313.1163,50.15532,57.43199
590791.8,238.9788,312.4835,50.07423,57.37939
590815.9,238.4686,311.6837,50.01395,57.31268
590832.4,237.8296,310.8811,49.93824,57.2455
590844.9,237.0261,310.1119,49.84269,57.18088
590860.3,235.9052,309.3251,49.70878,57.11455
590877.9,235.0179,308.6845,49.60225,57.06036
590894.1,234.1503,307.7253,49.49762,56.97894
590918.8,233.1621,306.6639,49.37792,56.88842
590929.9,232.3449,305.9844,49.27848,56.83025
590944.6,231.6238,305.2579,49.19041,56.76783
590958.8,231.0699,304.2441,49.12254,56.6804
590976.9,230.1597,302.853,49.0106,56.55977
590994.6,229.2786,301.5957,48.90177,56.45007
591010.3,228.3612,300.2426,48.78795,56.33131
591029.1,227.6444,299.1037,48.69865,56.23076
591043.5,226.895,297.696,48.60495,56.10575
591060.3,226.0895,295.8177,48.50385,55.93769
591077.8,225.2534,294.1052,48.39849,55.78317
591093.4,224.0573,291.9706,48.24699,55.58884
591115,223.394,290.6297,48.16257,55.46577
591128.3,222.8354,288.29,48.09129,55.24918
591146.8,222.3884,285.9918,48.03408,55.0341
591159.8,222.0425,283.7216,47.98974,54.81936
591176.1,221.876,280.7253,47.96837,54.5324
591194.4,221.8406,277.8043,47.96382,54.24871
591210.6,221.8934,274.2446,47.9706,53.89763
591227.6,222.3747,270.1784,48.03233,53.48925
591244.1,222.8901,266.4728,48.09827,53.1101
591260.9,223.666,260.5842,48.19722,52.49354
591282.3,223.989,257.4684,48.23831,52.16014
591294.3,224.3819,253.2502,48.28818,51.70068
591311.9,224.8466,249.3271,48.34705,51.26484
591325.8,225.535,245.4339,48.43402,50.82398
591342.4,226.8473,240.895,48.59898,50.29927
591360,228.2507,235.9391,48.77421,49.71284
591378.8,229.5295,231.8052,48.93281,49.2126
591393.6,230.9279,227.666,49.10511,48.70135
591410.8,232.1388,223.6343,49.25334,48.19318
591428.4,233.4373,219.7025,49.41132,47.68773
591444,234.9864,214.9302,49.59846,47.06076
591463,236.4201,210.7395,49.77039,46.49775
591479.1,237.6295,207.0309,49.91448,45.9896
591495.7,238.5194,203.8256,50.01995,45.54277
591513.4,239.2496,200.8423,50.10616,45.1204
591531.1,240.1681,197.9653,50.21416,44.70706
591545.3,241.1103,195.5887,50.32443,44.3611
591560.6,242.148,193.0319,50.44529,43.98431
591578,243.0493,190.5988,50.54977,43.62122
591594,244.014,188.6774,50.66109,43.33138
591610.4,245.0943,187.0912,50.78513,43.08999
591628.4,246.2716,185.574,50.91956,42.85732
591645.3,247.439,184.0397,51.05208,42.62021
591661.9,248.8357,182.1713,51.20966,42.32903
591678.5,250.41,180.8039,51.38599,42.1142
591694.6,252.3716,179.7354,51.6038,41.94531
591711,255.1876,178.9434,51.91288,41.81954
591730.5,258.2281,177.4981,52.2419,41.58875
591745.6,260.7771,175.6198,52.51402,41.28634
591762.1,263.0355,173.7148,52.75233,40.97673
591779,265.1477,171.7886,52.97288,40.6607
591794.8,266.9453,170.1398,53.15882,40.38778
591811.9,268.425,168.3604,53.31068,40.09075
591828.9,269.5744,166.5497,53.4279,39.78579
591846.3,270.4522,165.048,53.51699,39.53082
591861.3,271.0364,163.6628,53.57608,39.29394
591877.6,271.2744,162.2879,53.60011,39.05725
591894.2,271.436,161.1635,53.6164,38.86246
591910.4,271.3974,159.8839,53.6125,38.63953
591931.3,271.3376,159.0865,53.60648,38.49988
591945.1,271.3339,158.3588,53.6061,38.37197
591962.2,271.3241,157.7822,53.60512,38.27029
591978.1,271.4002,157.2941,53.61279,38.184
591994.2,271.5834,156.7757,53.63125,38.09213
592011.4,271.9501,156.1466,53.66816,37.98034
592029.3,272.4588,155.7091,53.71925,37.90238
592044.9,273.2102,155.2717,53.79449,37.82428
592061.9,274.1597,155.015,53.88918,37.77838
592078.6,275.2664,154.871,53.99901,37.75259
592094.8,277.2343,155.1888,54.19289,37.80945
592113.3,279.5305,155.7229,54.41684,37.90485
592129,283.4616,156.847,54.79462,38.10479
592147.6,287.4654,157.8233,55.17228,38.27755
592162.8,291.8855,158.5743,55.58105,38.40989
