Time Stamp(ms),Intersection,,Angle,
,x,y,x,y
1712309,288.4058,297.3724,55.25996,56.0769
1712330,287.7142,298.1727,55.19551,56.14818
1712347,286.9956,299.3623,55.12833,56.25364
1712377,286.4747,300.3617,55.07949,56.34179
1712406,285.967,301.0117,55.03177,56.3989
1712440,285.3185,301.4049,54.97066,56.43337
1712474,284.6387,301.7495,54.90639,56.46352
1712505,283.3617,302.041,54.78511,56.48899
1712537,281.6611,302.9589,54.62246,56.56898
1712572,279.6931,303.8791,54.4326,56.64883
1712601,277.5579,304.732,54.2246,56.72253
1712635,275.1929,305.6632,53.99173,56.80268
1712665,272.3217,306.2875,53.70549,56.85622
1712699,268.7624,307.5173,53.34515,56.96124
1712736,265.6543,308.3997,53.02544,57.03623
1712768,262.58,309.2338,52.70446,57.10683
1712797,259.2033,311.313,52.34639,57.28168
1712830,253.7367,312.6796,51.75417,57.3957
1712863,244.2553,314.8487,50.68885,57.57524
1712909,239.8834,315.9539,50.18073,57.66604
1712931,235.6304,317.5087,49.67584,57.79301
1712963,232.1219,318.4117,49.25127,57.86634
1712995,229.8714,318.6839,48.97505,57.8884
1713026,228.3354,319.0406,48.78474,57.91725
1713060,227.3771,319.0782,48.66526,57.92028
1713101,226.669,319.5574,48.57663,57.95896
1713128,226.1581,319.6343,48.51248,57.96517
1713158,225.4324,319.3872,48.42108,57.94524
1713195,224.8897,319.1997,48.35251,57.9301
1713225,224.0621,319.0885,48.2476,57.92112
1713259,223.1388,318.9605,48.13003,57.91077
1713290,222.5712,318.2385,48.05749,57.85231
1713322,222.431,317.7035,48.03954,57.80886
1713358,222.7546,317.2963,48.08095,57.77571
1713388,223.4618,316.9312,48.17122,57.74595
1713421,224.0056,316.9765,48.24042,57.74965
1713454,223.8351,316.6736,48.21873,57.72492
1713485,222.44,316.6854,48.04069,57.72589
1713520,221.1393,316.7621,47.87358,57.73215
1713554,220.7362,316.8398,47.82157,57.73849
1713584,220.9091,317.7129,47.84389,57.80962
1713615,220.9991,318.3505,47.8555,57.86139
1713645,221.0322,318.9843,47.85978,57.9127
1713679,220.8822,319.4014,47.84042,57.94638
1713719,221.029,320.6128,47.85936,58.04387
1713746,220.8657,319.9978,47.83829,57.99444
1713781,218.674,319.6658,47.55386,57.9677
1713806,216.0601,319.541,47.21054,57.95765
1713838,214.2605,319.0038,46.97157,57.91427
1713872,211.3829,319.1653,46.58496,57.92732
1713905,208.1313,318.552,46.14137,57.87771
1713937,205.1461,318.344,45.72772,57.86086
1713973,203.0424,318.5661,45.4325,57.87885
1714003,200.6557,320.0116,45.09377,57.99555
1714035,198.5872,319.7809,44.79692,57.97697
1714067,196.7131,319.3138,44.52529,57.93931
1714102,193.7381,319.4655,44.08885,57.95155
1714141,191.4437,319.1164,43.74781,57.92337
1714170,189.087,318.3298,43.39341,57.85971
1714200,187.5968,318.1429,43.16714,57.84455
1714234,186.2491,318.2271,42.96106,57.85138
1714266,184.0587,318.0791,42.62317,57.83937
1714299,183.5531,317.9389,42.54464,57.82799
1714331,184.9039,317.8997,42.75399,57.8248
1714364,187.7733,318.3483,43.19403,57.86121
1714398,190.0958,317.9537,43.54562,57.82919
1714436,192.4014,315.4801,43.89064,57.62717
1714464,194.3524,313.3214,44.17951,57.44901
1714493,196.077,312.0595,44.43252,57.34406
1714526,197.1819,311.8268,44.59348,57.32463
1714558,196.757,312.0082,44.53169,57.33978
1714596,196.2064,311.1774,44.45142,57.27033
1714625,195.9122,311.0512,44.40844,57.25975
1714656,195.3085,311.1233,44.32005,57.2658
1714686,195.0606,311.5622,44.28368,57.30252
1714719,194.5511,311.704,44.20877,57.31438
1714752,194.1561,311.9703,44.15058,57.33661
1714790,194.3854,311.0524,44.18438,57.25985
1714819,195.5441,310.8542,44.35458,57.24324
1714847,196.8472,311.2906,44.54482,57.2798
1714885,198.0791,310.9365,44.72353,57.25014
1714914,199.6189,309.7603,44.94535,57.15126
1714943,201.9045,308.6653,45.2715,57.05874
1714979,204.1741,307.8094,45.5917,56.9861
1715015,206.8441,307.62,45.96377,56.96997
1715042,210.6048,307.2304,46.47947,56.93679
1715077,216.782,305.824,47.30581,56.81648
1715110,222.4117,304.1985,48.03706,56.67647
1715141,226.976,302.9546,48.61509,56.56861
1715172,230.9945,302.9021,49.11328,56.56404
1715209,235.4853,303.2421,49.65842,56.59359
1715237,240.1453,303.1467,50.21148,56.5853
1715268,244.2599,303.5789,50.68938,56.62282
1715300,249.5528,304.304,51.29015,56.68559
1715336,254.1425,305.2581,51.79867,56.76785
1715368,258.9163,306.4323,52.31569,56.86861
1715403,263.2684,308.373,52.77675,57.03397
1715433,266.4564,309.7932,53.1084,57.15403
1715466,268.896,309.0525,53.3588,57.09151
1715495,271.1964,309.3209,53.59222,57.11419
1715529,273.6406,310.7119,53.83746,57.2313
1715559,275.5974,312.0488,54.03175,57.34316
1715594,276.3394,314.2228,54.10495,57.52361
1715629,276.5529,315.9815,54.12596,57.6683
1715661,276.544,317.3067,54.12509,57.77657
1715694,276.6672,317.7213,54.1372,57.8103
1715725,276.8109,319.2982,54.15132,57.93806
1715760,276.2728,321.3376,54.09839,58.10193
1715791,275.996,323.0052,54.0711,58.23483
1715822,275.4868,324.2079,54.02082,58.33006
1715855,274.4586,325.1575,53.9189,58.40489
1715888,273.8837,326.7489,53.8617,58.52958
1715921,274.0682,328.1533,53.88008,58.6389
1715955,274.2974,328.6713,53.90287,58.67904
1715985,274.2102,329.2743,53.8942,58.72566
1716020,273.9375,330.2158,53.86706,58.79819
1716047,273.694,330.7144,53.84279,58.83649
1716080,273.6475,331.8508,53.83815,58.92345
1716113,273.4036,332.3147,53.81381,58.95882
1716146,273.5179,332.4108,53.82522,58.96614
1716180,273.3657,332.6408,53.81003,58.98365
1716213,273.2053,333.2573,53.794,59.03048
1716243,273.1232,333.3291,53.78579,59.03592
1716278,272.7373,333.6586,53.74717,59.06089
1716309,272.4366,333.893,53.71702,59.07864
1716342,272.2065,334.3621,53.69392,59.11408
1716373,272.3056,334.4336,53.70387,59.11948
1716389,272.4297,334.52,53.71634,59.126
1716411,272.4765,334.7377,53.72103,59.14241
1716424,272.7292,335.0849,53.74636,59.16856
1716442,272.9964,335.4174,53.77311,59.19357
1716461,273.2341,335.6854,53.79688,59.21368
1716481,273.4615,335.9655,53.8196,59.2347
1716501,273.7128,336.1003,53.84467,59.2448
1716522,273.9821,336.4728,53.8715,59.27268
1716541,274.1994,336.4905,53.89314,59.274
1716561,274.1487,336.3428,53.88809,59.26295
1716591,274.084,336.0511,53.88164,59.24111
1716629,274.2082,336.3697,53.894,59.26497
1716660,274.0234,336.1601,53.87561,59.24928
1716694,274.9425,335.8719,53.96693,59.22768
1716724,276.6682,336.0162,54.1373,59.23849
1716772,277.2839,336.0655,54.19775,59.24219
1716792,277.4553,336.1822,54.21455,59.25093
1716812,277.4379,336.4715,54.21284,59.27258
1716838,277.1069,337.038,54.18039,59.3149
1716868,276.6859,337.3129,54.13905,59.3354
1716902,276.1548,337.5994,54.08676,59.35673
1716939,275.3432,337.9774,54.00661,59.38484
1716967,274.3876,337.9408,53.91185,59.38212
1717001,273.6095,338.3165,53.83436,59.41002
1717034,273.3318,338.3632,53.80664,59.41348
1717064,273.3965,338.5297,53.8131,59.42583
1717097,273.9637,338.2598,53.86967,59.40581
1717132,275.3403,337.4827,54.00632,59.34804
1717165,276.7433,336.7985,54.14468,59.29702
1717198,278.8125,336.2948,54.34706,59.25936
1717230,281.3983,335.5082,54.59721,59.20039
1717261,283.5224,334.7088,54.80041,59.14023
1717299,285.0375,334.8602,54.94411,59.15164
1717329,285.8577,334.9309,55.02148,59.15697
1717361,285.9717,335.3492,55.03222,59.18843
1717394,286.3829,335.1346,55.07088,59.17229
1717423,287.0349,335.0883,55.13201,59.16882
1717455,287.9507,335.3195,55.21758,59.1862
1717487,289.632,335.5515,55.3737,59.20364
1717525,290.9909,335.3218,55.499,59.18638
1717552,292.5632,335.5129,55.64298,59.20074
1717589,294.3362,335.5697,55.80409,59.205
1717622,296.8631,334.7924,56.03141,59.14653
1717655,300.0907,334.0999,56.31792,59.09428
1717685,305.9072,332.1082,56.82362,58.94308
1717720,313.2383,331.4197,57.44212,58.89051
1717750,319.181,332.6076,57.92859,58.98112
1717780,324.1882,334.119,58.3285,59.09572
1717813,328.709,334.5796,58.68196,59.13049
1717845,332.1061,334.3955,58.94292,59.1166
1717878,335.0948,333.9329,59.1693,59.08165
1717911,337.5118,334.334,59.35021,59.11196
1717943,339.7203,335.5525,59.51384,59.20371
1717976,341.9338,337.051,59.67627,59.31586
1718006,343.8637,338.416,59.81661,59.4174
1718042,345.4291,339.2161,59.92959,59.47662
1718071,346.9005,340.4594,60.03508,59.56825
1718102,348.5601,340.744,60.15326,59.58916
1718137,349.6759,340.8314,60.23225,59.59557
1718167,351.2279,340.6542,60.34148,59.58256
1718202,352.5963,340.0397,60.43719,59.53738
1718235,353.646,339.1459,60.51022,59.47144
1718265,354.8242,337.8993,60.59181,59.37904
1718297,355.6367,335.6758,60.64783,59.21297
1718335,357.2379,332.8989,60.75768,59.00327
1718367,359.1021,329.7653,60.88461,58.76352
1718398,361.1962,326.5354,61.02601,58.5129
1718428,364.2484,323.2222,61.22988,58.25204
1718467,368.9418,319.8718,61.53828,57.98429
1718504,371.7718,318.1461,61.72133,57.84481
1718549,376.329,315.6348,62.01159,57.63987
1718567,378.288,314.9161,62.13469,57.58079
1718581,381.4694,312.91,62.33249,57.41485
1718604,384.1657,311.4216,62.49813,57.29076
1718632,387.4517,309.6365,62.69752,57.14083
1718661,389.4183,308.014,62.81558,57.00349
1718695,390.327,306.4874,62.86981,56.87333
1718729,390.3435,304.2656,62.8708,56.68227
1718765,390.3083,302.7554,62.8687,56.55127
1718791,390.4647,300.7608,62.87801,56.37688
1718824,391.5516,299.2752,62.94258,56.24594
1718867,392.2199,298.2392,62.98215,56.15409
1718889,392.9636,297.9769,63.02604,56.13077
1718921,393.8274,297.2359,63.07687,56.06472
1718956,394.9483,296.2541,63.14256,55.97687
1718987,395.6371,295.7949,63.18277,55.93564
1719019,397.3837,294.6375,63.28426,55.83133
1719052,398.49,294.2469,63.34817,55.796
1719091,400.0451,294.2563,63.43753,55.79686
1719122,401.5701,293.6447,63.52463,55.74141
1719149,402.1066,293.0587,63.55514,55.68814
1719170,402.7896,292.3763,63.59389,55.62593
1719200,403.4702,291.5625,63.63241,55.55146
1719239,403.8051,290.8209,63.65132,55.48336
1719272,404.2823,289.8926,63.67822,55.39779
1719299,405.0907,289.4898,63.72368,55.36054
1719336,405.7124,289.8715,63.75854,55.39584
1719370,406.2016,290.1064,63.78592,55.41753
1719400,406.3604,290.9268,63.79479,55.4931
1719435,406.9659,292.1811,63.82858,55.60809
1719467,408.779,293.1558,63.92926,55.69697
1719499,410.0257,293.2216,63.99807,55.70296
1719531,410.0343,292.5762,63.99854,55.64417
1719564,409.6996,292.0248,63.9801,55.5938
1719596,408.8253,291.2092,63.93182,55.51905
1719637,408.4303,290.8459,63.90995,55.48566
1719669,408.5887,290.9473,63.91872,55.49499
1719703,408.5526,291.1039,63.91672,55.50938
1719723,408.1017,291.2957,63.89173,55.52699
1719736,407.2442,291.3568,63.84408,55.5326
1719754,406.0934,291.4566,63.77987,55.54176
1719772,404.695,291.5343,63.70145,55.54888
1719796,403.3672,291.6139,63.62658,55.55618
1719814,402.2912,291.5193,63.56562,55.5475
1719835,401.1437,291.4417,63.50033,55.54038
1719853,399.6147,291.1758,63.41285,55.51599
1719872,397.809,290.5616,63.30886,55.4595
1719889,396.214,289.835,63.21637,55.39247
1719908,393.9629,289.201,63.08483,55.33379
1719950,391.4759,288.4112,62.9381,55.26046
1719976,388.5987,287.4004,62.76649,55.1662
1720008,385.9768,286.4592,62.60835,55.07804
1720040,383.6979,285.242,62.46952,54.96344
1720074,380.4287,284.2147,62.26808,54.8662
1720105,377.1803,284.0457,62.06521,54.85016
1720138,372.8268,283.6542,61.78902,54.81295
1720170,368.451,283.1248,61.50631,54.76253
1720204,364.8393,283.1615,61.26904,54.76603
1720242,361.2093,282.933,61.02689,54.74424
1720276,358.6194,282.8927,60.85184,54.74038
1720307,356.4497,281.9175,60.7037,54.64706
1720340,354.7249,281.1562,60.58495,54.57392
1720380,353.8469,280.5053,60.52416,54.51117
1720410,353.2882,279.2841,60.48536,54.39291
1720427,352.7552,278.8879,60.44826,54.35441
1720454,353.3678,279.1213,60.4909,54.37711
1720491,354.11,279.0184,60.5424,54.3671
1720519,354.4369,279.0728,60.56503,54.37239
1720552,354.4161,279.5535,60.56359,54.41906
1720586,354.1623,280.1317,60.54602,54.47506
1720615,353.6874,280.2362,60.5131,54.48517
1720648,353.0888,280.9904,60.47149,54.55795
1720681,352.1925,281.086,60.409,54.56716
1720713,350.3465,281.9763,60.27953,54.6527
1720745,348.7084,281.9692,60.16378,54.65203
1720779,347.5926,282.4727,60.08447,54.70025
1720811,346.6054,283.3663,60.01398,54.78555
1720844,345.503,284.064,59.9349,54.8519
1720878,344.1853,284.0458,59.83988,54.85017
1720910,342.6076,284.0621,59.7254,54.85172
1720942,340.3604,284.3071,59.56098,54.87497
1720991,339.5544,284.3252,59.50161,54.87669
1721013,338.6413,284.753,59.4341,54.91721
1721047,337.5795,284.6733,59.35525,54.90967
1721076,336.7226,284.9037,59.29135,54.93147
1721107,335.5099,284.1484,59.2005,54.85991
1721140,334.6723,282.9431,59.13748,54.7452
1721175,334.769,282.0626,59.14477,54.66098
1721206,334.8774,281.1732,59.15294,54.57556
1721239,334.8397,281.1199,59.1501,54.57042
1721271,335.0453,281.3573,59.16558,54.59327
1721306,335.2434,281.7454,59.18048,54.63055
1721338,334.8429,281.7787,59.15034,54.63374
1721379,334.3664,281.9987,59.1144,54.65485
1721395,334.1607,282.4037,59.09887,54.69365
1721413,333.8494,282.6432,59.07533,54.71655
1721428,333.5158,282.8852,59.05008,54.73967
1721447,333.1554,282.8546,59.02274,54.73674
1721469,332.8822,282.9928,59.002,54.74994
1721489,332.6801,283.0311,58.98664,54.75359
1721509,332.4364,283.0431,58.96809,54.75474
1721528,332.1819,283.0728,58.9487,54.75757
1721545,331.8036,283.1815,58.91985,54.76793
1721564,331.4189,283.0907,58.89045,54.75928
1721596,330.9169,283.0222,58.85202,54.75275
1721630,330.514,282.7758,58.82111,54.72922
1721662,330.1694,282.6054,58.79463,54.71294
1721696,329.7213,282.196,58.76014,54.67376
1721727,329.2491,281.977,58.72371,54.65277
1721761,329.001,282.0624,58.70455,54.66096
1721793,328.5656,281.9312,58.67086,54.64838
1721819,328.5003,282.1176,58.6658,54.66625
1721835,328.3524,282.1687,58.65433,54.67115
1721854,328.1313,281.8564,58.63719,54.64121
1721875,328.0307,281.8674,58.62938,54.64226
1721895,327.9414,281.8078,58.62244,54.63654
1721912,327.8324,281.7712,58.61398,54.63303
1721932,327.8245,281.8563,58.61336,54.64119
1721952,327.7461,281.7711,58.60727,54.63301
1721972,327.6765,281.8734,58.60186,54.64284
1721994,327.5873,282.3445,58.59492,54.68798
1722012,327.2797,282.3643,58.57098,54.68988
1722041,326.9868,282.799,58.54815,54.73143
1722084,327.0169,282.9275,58.5505,54.7437
1722114,327.052,283.1936,58.55323,54.76909
1722142,327.0642,283.2514,58.55419,54.7746
1722183,327.2383,283.1909,58.56775,54.76883
1722213,327.2952,283.2002,58.57219,54.76971
1722241,327.3173,283.6119,58.57391,54.80893
1722277,327.2827,283.3387,58.57121,54.78292
