Time Stamp(ms),Intersection,,Angle,
,x,y,x,y
1043240,314.2964,285.115,57.52969,54.95144
1043256,314.162,285.0369,57.51859,54.94407
1043273,314.1865,285.175,57.52061,54.95711
1043290,314.1857,285.1539,57.52055,54.95511
1043306,314.3824,285.1387,57.53679,54.95368
1043323,314.6419,285.1711,57.5582,54.95675
1043340,314.8181,285.2198,57.57272,54.96135
1043356,315.0188,285.3224,57.58924,54.97103
1043373,315.2425,285.4304,57.60764,54.98121
1043390,315.4818,285.548,57.62731,54.99231
1043407,315.6512,285.6651,57.64121,55.00335
1043423,315.7921,285.8263,57.65277,55.01853
1043440,315.9852,285.8277,57.6686,55.01867
1043457,316.1657,286.055,57.68339,55.04005
1043473,316.23,286.1518,57.68865,55.04915
1043489,316.1843,286.3513,57.68491,55.06791
1043506,315.9281,286.1828,57.66393,55.05207
1043523,315.9232,286.1554,57.66352,55.04949
1043540,315.6183,286.1516,57.63851,55.04913
1043558,315.2217,286.0675,57.60593,55.04123
1043574,314.7206,285.8788,57.56468,55.02348
1043592,314.2021,285.5087,57.5219,54.9886
1043608,313.6369,285.0695,57.47515,54.94714
1043624,312.6957,284.741,57.39704,54.91607
1043641,311.8531,284.241,57.32682,54.8687
1043658,310.9513,283.6115,57.25138,54.80889
1043675,309.949,282.9393,57.16716,54.74483
1043692,308.8105,281.9664,57.07104,54.65175
1043707,307.2858,280.4305,56.94151,54.50394
1043724,305.6242,278.4142,56.79932,54.30827
1043741,303.8437,276.131,56.64576,54.08441
1043758,301.9132,273.3258,56.47783,53.80604
1043775,300.1439,269.6971,56.32261,53.44038
1043793,298.1234,265.418,56.1438,53.00094
1043807,296.0264,261.3849,55.95644,52.5784
1043824,294.4455,257.4494,55.81397,52.1581
1043841,292.8029,253.967,55.66484,51.77943
1043859,291.5219,250.6899,55.54774,51.41719
1043876,290.5663,247.606,55.45994,51.07098
1043893,289.6026,244.4506,55.37098,50.7113
1043911,288.7965,241.4031,55.29627,50.3586
1043925,288.0217,238.6213,55.22419,50.03201
1043942,287.2826,235.9659,55.15519,49.71605
1043960,286.3197,233.937,55.06493,49.47184
1043976,285.3165,232.0274,54.97047,49.23974
1043992,284.0277,230.0756,54.84846,49.00023
1044009,281.9597,228.0559,54.65112,48.74995
1044026,279.8854,226.2273,54.45123,48.52117
1044042,276.9603,224.2334,54.166,48.26934
1044062,274.4989,222.5246,53.9229,48.05152
1044078,272.2561,220.9016,53.6989,47.84292
1044094,269.2225,219.2157,53.39208,47.62444
1044112,265.9196,217.5628,53.05292,47.40846
1044129,262.7518,215.9164,52.72253,47.19154
1044146,259.6533,214.3107,52.39445,46.97827
1044164,256.8924,212.8655,52.09795,46.78484
1044178,254.4632,211.6751,51.83377,46.62447
1044194,252.1033,210.0608,51.57413,46.40546
1044212,249.9349,208.3086,51.33291,46.16574
1044229,248.2729,206.2917,51.14629,45.88719
1044245,246.7475,204.3038,50.97367,45.60989
1044260,245.0721,201.2861,50.78258,45.18364
1044279,243.1418,196.0572,50.56047,44.42963
1044295,240.8189,189.1555,50.29038,43.40376
1044311,238.6855,182.075,50.03959,42.31395
1044328,236.6618,176.2223,49.79925,41.38365
1044344,235.0703,172.1707,49.60856,40.72362
1044360,233.526,169.2997,49.42207,40.24786
1044377,232.3907,168.3912,49.28407,40.0959
1044394,231.5096,166.8374,49.17642,39.83442
1044412,231.3251,165.9982,49.15382,39.69236
1044428,231.133,164.801,49.13028,39.48869
1044447,231.1173,163.7661,49.12836,39.31166
1044463,230.8459,162.8264,49.09504,39.15014
1044478,230.5791,162.052,49.06224,39.01647
1044495,230.3517,161.6172,49.03426,38.9412
1044512,230.1196,161.1103,49.00567,38.85323
1044527,229.8657,160.6871,48.97435,38.77964
1044544,229.7872,160.7251,48.96465,38.78625
1044562,229.9403,160.8986,48.98355,38.81643
1044578,230.2458,161.2119,49.02121,38.87088
1044595,230.7431,161.6336,49.08241,38.94403
1044613,231.1732,161.8002,49.1352,38.97289
1044627,231.6901,161.8359,49.19852,38.97908
1044644,232.4651,161.8531,49.29313,38.98206
1044661,233.2264,162.0718,49.38573,39.0199
1044678,234.0741,162.2729,49.48842,39.05466
1044694,235.0118,162.5918,49.60152,39.10969
1044711,235.6934,162.7583,49.68339,39.13841
1044728,236.2427,162.8271,49.74918,39.15025
1044743,236.7175,162.8736,49.8059,39.15827
1044760,237.117,163.0765,49.85352,39.1932
1044778,237.4408,163.2749,49.89205,39.22732
1044793,237.7382,163.4566,49.92738,39.25854
1044810,237.87,163.7285,49.94304,39.30522
1044831,238.0015,164.0273,49.95863,39.35643
1044843,237.9534,164.2223,49.95292,39.38982
1044860,237.7903,164.6154,49.93357,39.45702
1044877,237.6511,164.9299,49.91705,39.51068
1044893,237.4259,165.1161,49.89029,39.54242
1044911,237.2907,165.4556,49.8742,39.60021
1044930,237.2198,165.8708,49.86577,39.67074
1044945,237.1264,166.1995,49.85464,39.72649
1044962,237.088,166.6321,49.85007,39.79973
1044979,237.1141,167.3087,49.85318,39.91395
1044994,237.1837,167.9503,49.86146,40.02191
1045011,237.3803,168.6069,49.88486,40.13204
1045027,237.6855,169.4399,49.92113,40.27125
1045044,238.1209,170.1667,49.97278,40.39225
1045061,238.6405,170.9933,50.03428,40.52934
1045077,239.4567,171.9511,50.13055,40.68747
1045094,240.5982,173.2087,50.26456,40.89399
1045113,241.54,173.9827,50.37456,41.02044
1045127,242.7433,174.8205,50.51436,41.15678
1045145,243.7324,175.5897,50.62865,41.28146
1045161,244.8491,176.6069,50.75703,41.44561
1045177,245.9782,177.6295,50.88612,41.6098
1045194,247.5003,178.6514,51.05902,41.77305
1045212,248.8496,179.6141,51.21122,41.92608
1045228,249.979,180.3898,51.33784,42.04885
1045244,251.5328,181.2159,51.51092,42.17908
1045263,252.9402,182.0956,51.66655,42.31717
1045279,254.3247,183.056,51.81861,42.46724
1045294,256.4198,184.3143,52.04681,42.66279
1045316,258.427,185.4326,52.26325,42.83553
1045332,260.5278,186.4717,52.48754,42.9952
1045345,263.1406,187.3391,52.76335,43.12785
1045361,266.1546,188.2968,53.07723,43.27364
1045378,269.9945,189.3188,53.47058,43.42845
1045396,273.2833,190.063,53.80179,43.54069
1045411,277.3824,190.7572,54.20741,43.64501
1045429,280.8081,191.5005,54.54038,43.7563
1045445,284.3463,192.3007,54.87868,43.87566
1045461,288.3782,193.3271,55.25739,44.02806
1045479,292.358,193.9889,55.62425,44.12591
1045495,296.6017,194.5632,56.00801,44.21055
1045513,301.5203,194.671,56.44347,44.22642
1045529,306.446,194.5535,56.86979,44.20913
1045545,311.9828,194.2391,57.33766,44.16281
1045562,318.6365,193.8829,57.88456,44.11025
1045582,325.6951,193.5142,58.44711,44.05574
1045599,332.1953,193.0396,58.94972,43.98544
1045613,338.5547,192.6764,59.42768,43.93153
1045628,345.379,191.9276,59.92598,43.82006
1045645,352.7824,190.8632,60.45016,43.6609
1045664,359.1713,189.7887,60.88931,43.49937
1045683,365.7361,188.9783,61.32829,43.37696
1045701,371.4274,188.2272,61.69917,43.26306
1045717,376.6554,187.5062,62.03218,43.15333
1045733,381.8592,186.5421,62.35655,43.00598
1045751,386.7387,185.3231,62.65448,42.81867
1045766,391.174,184.1637,62.92019,42.63945
1045784,394.7073,183.2495,63.12846,42.4974
1045799,397.9854,182.4252,63.31905,42.36876
1045815,400.5538,181.6424,63.46664,42.24611
1045832,403.3576,180.9286,63.62604,42.13384
1045852,405.7475,180.4836,63.76051,42.06366
1045866,407.9232,179.9373,63.88182,41.97728
1045884,409.5617,179.6024,63.9725,41.92423
1045900,410.7975,179.6572,64.0405,41.93291
1045914,412.217,179.6867,64.1182,41.93758
1045931,413.5549,179.9655,64.19105,41.98176
1045949,414.3037,180.4811,64.23164,42.06327
1045966,414.8495,180.7811,64.26117,42.11061
1045981,415.5783,181.0192,64.30048,42.14812
1045998,416.2012,181.3818,64.334,42.20517
1046015,416.8268,181.6978,64.36758,42.2548
1046035,417.1812,182.0688,64.38657,42.31298
1046049,418.0613,182.3846,64.43361,42.3624
1046066,419.0485,182.8427,64.48618,42.43398
1046083,419.8031,183.3041,64.52622,42.5059
1046097,420.4041,183.9803,64.55804,42.611
1046114,420.7446,184.7241,64.57603,42.7262
1046130,420.8226,185.5198,64.58015,42.84897
1046153,420.8907,186.3181,64.58374,42.97165
1046174,420.6874,186.938,64.57301,43.06658
1046182,420.253,187.7609,64.55004,43.19214
1046200,419.6075,188.7213,64.51585,43.33804
1046215,419.1279,189.4393,64.49039,43.44666
1046229,418.7226,190.1587,64.46884,43.55508
1046247,418.5788,190.7472,64.46119,43.6435
1046265,418.5398,191.3501,64.45911,43.73381
1046281,418.5486,192.0426,64.45958,43.83722
1046298,418.6885,192.4587,64.46703,43.89916
1046315,419.0982,192.6709,64.48882,43.93071
1046332,419.4491,193.003,64.50745,43.98001
1046347,419.0407,194.0089,64.48576,44.12885
1046366,418.6185,194.7433,64.4633,44.23705
1046380,418.5414,195.4535,64.4592,44.3413
1046397,418.8055,196.1447,64.47325,44.44241
1046423,419.2098,196.6583,64.49475,44.51731
1046433,419.4057,197.1507,64.50515,44.58895
1046448,419.7556,197.7067,64.5237,44.66961
1046465,420.1443,198.1997,64.5443,44.74097
1046481,420.6317,198.7576,64.57007,44.82149
1046500,420.6497,198.9266,64.57101,44.84583
1046520,420.8132,198.956,64.57965,44.85007
1046532,420.9114,198.947,64.58483,44.84877
1046547,420.9096,199.2144,64.58474,44.88725
1046564,420.7437,199.8437,64.57597,44.9776
1046581,420.7274,200.1351,64.57512,45.01935
1046597,420.6769,200.4032,64.57245,45.0577
1046614,420.6572,200.7986,64.57141,45.11416
1046631,420.567,200.9635,64.56664,45.13768
1046647,420.3944,201.324,64.55753,45.18902
1046663,420.1837,201.9604,64.54638,45.27943
1046681,419.9265,202.5479,64.53276,45.36265
1046698,419.7561,203.6526,64.52374,45.51845
1046714,419.3941,204.9292,64.50453,45.69743
1046731,418.5141,206.7508,64.45774,45.95084
1046748,416.8986,209.1568,64.37143,46.28205
1046765,415.3493,211.0683,64.28815,46.54235
1046782,413.8693,213.0595,64.20811,46.81089
1046798,412.5706,215.2568,64.1375,47.10414
1046814,411.3688,217.6187,64.07182,47.41579
1046831,410.3799,219.8661,64.01756,47.70895
1046848,409.2846,221.5646,63.95721,47.92834
1046865,408.554,222.8316,63.91681,48.0908
1046881,408.2262,224.176,63.89864,48.26205
1046898,408.1469,225.5707,63.89424,48.43853
1046915,408.0615,227.438,63.8895,48.67288
1046936,408.3672,229.1892,63.90645,48.8907
1046953,408.8494,230.8922,63.93315,49.10072
1046969,409.4793,232.4326,63.96795,49.28917
1046985,410.1927,234.4074,64.00726,49.52868
1047002,410.7231,237.2583,64.03642,49.87035
1047018,410.6538,240.2209,64.03261,50.22034
1047036,410.0636,243.6006,64.00015,50.61346
1047052,409.2952,246.3544,63.95779,50.92898
1047065,408.1569,249.1039,63.89479,51.2398
1047082,406.9487,251.8441,63.82761,51.54544
1047099,406.1536,254.499,63.78323,51.83769
1047116,405.4366,257.2839,63.74309,52.14024
1047133,404.6413,260.1331,63.69843,52.44558
1047151,403.5126,263.3774,63.6348,52.78818
1047172,402.6421,265.4749,63.58553,53.00684
1047186,401.9695,267.7101,63.54735,53.23745
1047202,401.583,269.6561,63.52536,53.43621
1047219,401.366,271.8796,63.513,53.66106
1047235,400.963,274.0235,63.49002,53.87563
1047252,400.6698,276.1519,63.47327,54.08647
1047270,400.7083,278.1061,63.47547,54.27821
1047288,400.9852,279.9582,63.49129,54.45828
1047302,401.6307,282.7517,63.52808,54.72692
1047328,401.8007,284.4108,63.53775,54.8848
1047349,402.142,286.706,63.55715,55.10119
1047367,402.4996,288.8936,63.57745,55.30529
1047383,402.65,289.6742,63.58598,55.37761
1047394,402.7796,290.4905,63.59333,55.45295
1047403,403.0741,291.3708,63.61,55.53388
1047421,403.7769,292.5753,63.64973,55.64409
1047436,404.0729,293.6176,63.66642,55.73895
1047451,404.4695,294.8329,63.68876,55.84898
1047470,404.7748,295.9146,63.70594,55.94639
1047483,405.1141,297.1614,63.72499,56.05807
1047501,405.4229,298.0122,63.74232,56.13391
1047519,405.6557,299.2377,63.75537,56.24262
1047533,405.9533,300.3912,63.77203,56.34438
1047551,406.3754,301.6251,63.79563,56.45264
1047568,406.9258,302.8123,63.82634,56.55623
1047589,407.3737,303.6364,63.85128,56.6278
1047603,407.6396,304.4928,63.86607,56.70189
1047619,407.9432,305.3361,63.88294,56.77456
1047636,408.1867,306.1477,63.89645,56.84424
1047651,408.4528,306.6328,63.9112,56.88577
1047672,408.5203,306.7839,63.91494,56.89867
1047684,408.416,306.8433,63.90915,56.90375
1047701,408.3861,306.8524,63.9075,56.90453
1047719,408.4949,306.7926,63.91353,56.89942
1047736,408.7278,306.836,63.92643,56.90313
1047752,409.0107,307.1133,63.94207,56.9268
1047770,409.328,307.3083,63.9596,56.94343
1047786,409.8044,307.4046,63.98588,56.95163
1047804,410.2894,307.3079,64.01258,56.94339
1047820,410.6743,307.1522,64.03374,56.93011
1047834,411.0792,306.928,64.05595,56.91099
1047852,411.4613,306.5524,64.07689,56.87889
1047870,411.8229,305.9442,64.09668,56.82679
1047885,412.3648,304.9202,64.12627,56.73875
1047902,412.8885,303.688,64.15481,56.63227
1047918,412.629,301.8614,64.14068,56.47331
1047937,411.9943,300.4554,64.10604,56.35003
1047953,411.0941,298.9995,64.05677,56.22153
1047970,410.3629,297.5425,64.01662,56.09208
1047987,409.4762,296.4269,63.96778,55.99236
1048005,408.3058,295.3507,63.90305,55.89567
1048022,407.4348,294.1891,63.85468,55.79078
1048046,406.4846,292.8533,63.80173,55.66943
1048058,405.9647,291.7427,63.77267,55.56798
1048071,405.3234,290.198,63.73674,55.42599
1048089,404.7935,288.2304,63.70699,55.24363
1048104,404.4047,286.4998,63.68511,55.08184
1048121,403.9965,284.6174,63.66212,54.90437
1048138,403.4684,282.5502,63.63231,54.70766
1048155,402.9675,279.0992,63.60397,54.37495
1048185,402.7548,277.9383,63.59192,54.2618
1048192,402.4727,276.4678,63.57592,54.11759
1048203,402.1565,274.3174,63.55798,53.90486
1048219,402.009,271.8124,63.5496,53.65431
1048237,401.8615,269.5715,63.54121,53.4276
1048256,401.5896,267.353,63.52574,53.20077
1048272,401.1942,264.8039,63.50321,52.93713
1048290,400.8946,262.4727,63.48611,52.69318
1048304,400.6745,259.953,63.47354,52.4264
1048323,400.4293,258.0781,63.45952,52.22577
1048338,399.9226,256.127,63.43052,52.01505
1048355,399.3691,254.2441,63.39875,51.8098
1048372,398.7673,252.3432,63.36414,51.60066
1048389,398.0793,250.2388,63.32448,51.36688
1048402,397.3189,248.0246,63.28051,51.11829
1048420,396.8076,245.9862,63.25086,50.88704
1048435,396.226,243.8952,63.21707,50.64742
1048453,395.3831,241.901,63.16795,50.41658
1048470,394.5504,239.7494,63.11927,50.16499
1048486,393.766,237.5838,63.07326,49.90905
1048503,393.0094,235.5941,63.02875,49.67149
1048520,392.232,233.9127,62.98286,49.46891
1048537,391.2943,232.6145,62.92732,49.31134
1048557,390.4319,231.0434,62.87606,49.11928
1048573,389.8694,229.2705,62.84253,48.90076
1048586,389.6348,227.3432,62.82852,48.66104
1048603,389.444,225.6215,62.81712,48.44492
1048619,388.8669,224.1965,62.78257,48.26465
1048637,388.0013,222.7267,62.73061,48.07738
1048653,386.9872,221.0116,62.66949,47.85711
1048670,385.9052,219.3781,62.60401,47.64557
1048687,384.7681,218.0615,62.53488,47.47381
1048703,383.0789,217.4248,62.43159,47.39035
1048720,381.2788,216.9639,62.32072,47.32975
1048737,379.4792,216.6682,62.20906,47.29081
1048754,377.6393,216.6788,62.09404,47.29221
1048771,375.9897,216.7582,61.99017,47.30267
1048787,374.1563,217.0824,61.87389,47.34534
1048804,372.1131,218.0159,61.74326,47.46785
1048821,370.1091,219.2137,61.61405,47.62418
1048838,368.1272,220.5316,61.48519,47.79513
1048854,366.3893,221.4899,61.37131,47.91873
1048871,364.5081,222.4454,61.2471,48.04138
1048887,362.2936,223.409,61.09962,48.16448
1048905,360.443,223.6644,60.9753,48.19702
1048921,359.4327,223.2249,60.90702,48.14101
1048939,359.0723,222.966,60.8826,48.10797
1048956,358.7089,223.0233,60.85792,48.11529
1048973,357.3358,223.3984,60.76436,48.16314
1048990,355.2913,223.8587,60.62404,48.22174
1049006,353.0733,224.4541,60.47041,48.29733
1049023,350.3619,225.4431,60.28062,48.42242
1049041,346.7475,226.774,60.02414,48.58979
1049059,343.7672,227.8718,59.80963,48.72702
1049076,339.7116,229.1597,59.5132,48.88704
1049093,335.7348,230.2558,59.21739,49.02244
1049109,331.9836,231.3806,58.93358,49.16063
1049125,327.9614,232.6955,58.62399,49.3212
1049143,323.0893,234.346,58.2415,49.52126
1049165,316.5001,237.1966,57.71074,49.86301
1049188,311.9887,239.0734,57.33815,50.08539
1049199,308.5231,240.4964,57.04669,50.25264
1049209,303.1723,242.6091,56.58752,50.49881
1049225,296.3756,245.0183,55.98776,50.77643
1049243,289.6642,247.7713,55.37667,51.08967
1049259,283.1624,250.7651,54.76612,51.42557
1049275,275.7892,254.5463,54.0507,51.84286
1049292,268.9038,257.711,53.35959,52.18628
1049308,262.0343,260.5516,52.647,52.49007
1049323,254.7536,263.2908,51.86552,52.7791
1049340,247.2591,265.4677,51.03171,53.0061
1049356,238.9263,267.6586,50.06804,53.23216
1049374,231.1322,269.607,49.13018,53.43121
1049392,223.9451,271.3143,48.23272,53.60413
1049409,216.2987,272.7112,47.24207,53.74456
1049427,208.191,273.9731,46.14957,53.87061
1049447,202.9975,274.5847,45.42616,53.93143
1049461,198.1646,275.3001,44.73588,54.00235
1049477,192.9626,276.26,43.97403,54.09713
1049492,188.2778,277.1749,43.27074,54.18706
1049510,185.0164,277.6658,42.77136,54.23515
1049524,181.3022,278.0719,42.19265,54.27486
1049541,178.3291,278.3115,41.72165,54.29824
1049559,175.9454,278.669,41.33897,54.3331
1049573,173.7614,278.9939,40.98434,54.36472
1049590,172.2458,279.178,40.73599,54.38261
1049607,171.8932,278.9715,40.67794,54.36254
1049624,171.3028,278.7179,40.58052,54.33786
1049640,171.3902,278.3593,40.59495,54.30292
1049657,171.2564,278.1804,40.57285,54.28546
1049673,171.1668,278.0998,40.55803,54.27758
1049692,171.1451,278.139,40.55444,54.28142
1049708,171.2443,278.3496,40.57085,54.30196
1049723,171.4074,278.6666,40.5978,54.33286
1049744,171.5863,278.9353,40.62733,54.35901
1049760,171.7113,279.2865,40.64796,54.39315
1049774,171.7475,279.8991,40.65392,54.45256
1049802,171.9576,280.2191,40.68855,54.48352
1049814,172.2291,280.4024,40.73324,54.50123
1049825,172.5024,280.433,40.77817,54.50419
1049842,172.6823,280.4059,40.8077,54.50157
1049856,172.866,280.3851,40.83784,54.49956
1049874,173.3929,280.482,40.92413,54.50892
1049891,174.1583,280.7799,41.04907,54.53766
1049907,175.1247,281.1912,41.20615,54.57729
1049929,176.5864,281.8562,41.44232,54.64118
1049944,178.5313,282.8111,41.7539,54.73259
1049962,179.8864,283.4796,41.96922,54.79633
1049974,182.0405,284.5289,42.30853,54.89599
1049990,184.9114,285.7072,42.75515,55.00731
1050006,187.5853,286.752,43.1654,55.10551
1050023,190.5039,287.6247,43.60698,55.18715
1050045,193.1491,288.2531,44.00168,55.24575
1050060,196.1076,288.1782,44.43699,55.23877
1050076,199.0313,287.8234,44.86091,55.2057
1050093,201.9942,287.2209,45.28424,55.14941
1050109,205.5225,286.5127,45.78022,55.08306
1050128,208.4745,286.2133,46.18852,55.05493
1050144,212.3461,286.0077,46.71499,55.0356
1050169,214.3246,285.9411,46.98011,55.02934
1050179,216.4291,286.0257,47.25928,55.03729
1050193,218.8121,286.2586,47.57187,55.0592
1050210,221.0406,286.5952,47.86086,55.0908
1050226,223.5405,287.1151,48.18124,55.13952
1050243,226.1258,287.7154,48.50842,55.19562
1050262,229.387,288.3938,48.91518,55.25883
1050295,233.8184,289.1265,49.45749,55.32689
1050308,236.0077,289.3527,49.72106,55.34785
1050319,237.9812,289.4662,49.95622,55.35836
1050327,241.5426,289.3572,50.37486,55.34827
1050342,245.4285,289.0948,50.82336,55.32395
1050362,249.6873,288.7325,51.30521,55.29033
1050379,254.152,288.1294,51.79971,55.23423
1050395,258.6696,287.6819,52.28926,55.1925
1050412,262.7968,287.3385,52.72726,55.16042
1050438,269.5054,287.0203,53.42089,55.13065
1050455,272.7498,286.8543,53.74842,55.1151
1050465,275.9774,286.803,54.06927,55.11029
1050479,279.6992,286.4208,54.43319,55.07443
1050495,283.3757,286.0236,54.78644,55.03709
1050511,287.5944,285.5195,55.18433,54.98962
1050528,291.013,285.0491,55.50103,54.94522
1050545,294.0623,284.6554,55.77928,54.90797
1050563,296.9176,284.4174,56.03628,54.88543
1050580,299.3942,284.3156,56.25646,54.87578
1050594,302.5011,284.1721,56.52913,54.86216
1050613,305.1935,284.077,56.7623,54.85314
1050629,307.5451,284.2607,56.9636,54.87057
1050647,309.6999,284.1975,57.14618,54.86457
1050663,311.693,283.9366,57.31345,54.83979
1050678,313.4998,283.7725,57.4638,54.82421
1050695,315.8416,283.5189,57.65683,54.80008
1050717,317.6615,283.3744,57.80544,54.78632
1050732,319.4243,283.1898,57.94823,54.76873
1050745,321.5232,282.8945,58.11677,54.74055
1050763,323.0667,282.7379,58.23971,54.72559
1050777,324.5796,282.6552,58.35939,54.71769
1050792,326.3507,282.4813,58.49847,54.70107
1050811,328.1064,282.1196,58.63526,54.66644
1050829,329.7616,281.6859,58.76324,54.62484
1050847,331.5579,281.3111,58.90108,54.58882
1050861,333.3289,280.9533,59.0359,54.55438
