Time Stamp(ms),Intersection,,Angle,
,x,y,x,y
655491.8,321.9484,290.4596,58.15072,55.45011
655504.8,321.8329,290.658,58.14151,55.46838
655523.8,321.4004,289.5129,58.10695,55.36269
655549.4,321.176,289.3737,58.089,55.34979
655565.9,320.197,289.2168,58.01046,55.33525
655581.6,319.4645,288.8849,57.95147,55.30448
655597.8,318.1985,289.0073,57.84906,55.31583
655614.6,316.2192,288.8923,57.68776,55.30516
655632.1,315.0823,288.8123,57.59447,55.29773
655643.1,313.9026,289.3611,57.49714,55.34863
655652.4,312.8428,291.1434,57.40927,55.51301
655665.8,311.7093,292.6819,57.31482,55.65381
655681.6,309.9918,293.9122,57.17076,55.76568
655699.4,308.6073,294.4236,57.05383,55.81199
655715.3,307.384,295.0281,56.94988,55.86659
655731.6,306.2542,296.0983,56.85337,55.96289
655747.7,305.0287,296.1768,56.7481,55.96993
655763.9,304.3379,294.8543,56.68851,55.85091
655780,304.005,293.7112,56.65973,55.74745
655797.6,303.5291,293.2775,56.6185,55.70805
655814.1,303.5718,293.0488,56.6222,55.68724
655830.1,304.3131,292.8956,56.68637,55.67329
655847.3,304.7469,292.8311,56.72382,55.6674
655863.9,305.1373,292.9149,56.75746,55.67505
655880.9,305.4834,293.0594,56.78723,55.68821
655897.2,305.6686,293.2852,56.80314,55.70875
655913.7,305.8383,293.4769,56.81771,55.72617
655931.1,305.7991,293.6944,56.81435,55.74592
655948.5,305.9389,293.8582,56.82634,55.76078
655964.4,306.0916,294.3173,56.83943,55.80238
655980.9,306.1086,294.8187,56.84089,55.8477
655997.4,306.099,295.1913,56.84007,55.88131
656016.8,305.8551,295.6419,56.81915,55.92188
656035,305.8194,296.0254,56.81609,55.95634
656051.9,305.7014,296.1745,56.80595,55.96973
656067.8,305.0493,296.5497,56.74987,56.00336
656099.7,304.7126,296.6328,56.72086,56.0108
656116.2,304.2479,296.8586,56.68074,56.03101
656127.6,303.8431,297.1362,56.64571,56.05582
656154.9,303.5324,297.4877,56.61879,56.08719
656168.1,303.3969,297.6089,56.60703,56.09799
656180,303.322,297.6703,56.60053,56.10347
656189.6,303.191,297.8812,56.58915,56.12225
656202.6,302.9635,298.2118,56.56939,56.15165
656217.9,302.9575,298.6295,56.56886,56.18874
656233.8,303.2122,299.2671,56.591,56.24522
656250.4,303.6008,299.9279,56.62471,56.30357
656268,304.0469,301.0591,56.66335,56.40306
656285.5,304.4458,302.1828,56.69783,56.50138
656300.8,305.057,303.6593,56.75054,56.62978
656318.4,305.6049,305.1458,56.79767,56.75819
656333.4,306.2308,306.6601,56.85136,56.88809
656351.6,306.9047,307.5445,56.909,56.96355
656365.2,307.3394,308.2416,56.94608,57.02281
656383.5,307.5378,309.2172,56.96298,57.10543
656398.6,307.786,310.0468,56.9841,57.1754
656414.3,307.9442,310.8019,56.99755,57.23885
656432.8,307.9026,311.373,56.99401,57.2867
656449.3,307.6181,311.6543,56.96981,57.31022
656465.8,307.219,311.9523,56.93581,57.33511
656482.6,306.6799,312.1832,56.88979,57.35437
656499.9,305.9213,312.3271,56.82483,57.36636
656515.3,305.36,312.2302,56.77662,57.35828
656532.4,304.6995,312.0379,56.71973,57.34225
656548.7,303.8746,311.677,56.64844,57.31212
656565.4,303.11,311.2517,56.58212,57.27655
656581.8,302.452,310.6084,56.52486,57.22261
656599.4,301.9144,310.1591,56.47794,57.18485
656615.2,301.1068,309.6735,56.40725,57.14395
656634.5,300.4578,309.1643,56.35024,57.10096
656649,299.7214,308.4606,56.28536,57.04139
656667,299.0031,307.6056,56.22186,56.96875
656684.2,298.3782,306.6495,56.16644,56.88719
656700.6,297.819,305.5301,56.11671,56.79124
656716.1,297.1762,304.1274,56.05939,56.67031
656732.4,296.2712,302.6768,55.9784,56.54444
656750.1,295.353,301.0588,55.89588,56.40303
656768.2,294.4447,299.0239,55.8139,56.2237
656783.1,293.572,297.1479,55.73481,56.05686
656799.8,292.3359,295.6174,55.62223,55.91968
656817,291.2885,293.8226,55.52633,55.75755
656833.8,290.2446,291.8379,55.43028,55.57669
656850.4,288.8824,289.6886,55.30425,55.37894
656868.3,287.791,287.7689,55.20268,55.20061
656882.8,286.4837,285.7484,55.08033,55.01119
656900.3,285.1948,283.6905,54.95898,54.81641
656917.9,283.9773,281.7955,54.84367,54.63536
656933.8,282.6168,279.4221,54.71403,54.40631
656950.9,281.3923,276.982,54.59663,54.16813
656967,280.0761,274.5866,54.46969,53.93162
656983.8,278.6856,272.1677,54.33472,53.69002
657000.6,277.4441,269.964,54.21345,53.46749
657016.9,276.1783,267.9531,54.08907,53.26237
657034.1,274.6727,265.9977,53.94016,53.061
657051.3,273.3679,264.3797,53.81025,52.89294
657066.3,272.0332,262.582,53.67651,52.70468
657083.8,270.9294,261.0694,53.56527,52.545
657099.6,269.8302,259.4752,53.4539,52.37545
657118.8,268.7108,258.0847,53.33989,52.22649
657133.4,267.4499,256.7919,53.21073,52.08709
657149.8,266.1348,255.5067,53.07518,51.94764
657165.4,264.6669,254.3285,52.92286,51.81903
657182.8,263.4397,253.4231,52.7947,51.71971
657198.8,262.2158,253.2966,52.66612,51.7058
657215.5,261.1436,253.8381,52.55286,51.76529
657233.1,260.4556,254.8559,52.47988,51.87669
657249.8,260.0143,255.7454,52.43293,51.97361
657266.3,259.5479,255.7696,52.3832,51.97623
657282.7,259.0761,255.3104,52.33279,51.92626
657299.9,258.1637,254.8416,52.23497,51.87514
657315.6,257.4663,254.4896,52.15991,51.83667
657333.1,257.0437,254.4759,52.11431,51.83516
657350.2,257.0419,254.321,52.11412,51.81822
657368.3,256.7518,254.2234,52.08275,51.80753
657382.4,256.4045,253.8562,52.04515,51.76728
657400.7,256.2576,253.416,52.02922,51.71893
657418.2,256.2834,253.0102,52.03202,51.67427
657434,256.3535,252.3445,52.03962,51.60081
657451.8,256.2757,251.82,52.03118,51.54276
657468.1,256.3045,251.3517,52.0343,51.49081
657485,256.3835,251.2088,52.04287,51.47493
657500.2,256.5976,251.1945,52.06606,51.47334
657518.9,257.2101,251.7434,52.13228,51.53427
657533.7,257.993,252.2604,52.21663,51.59151
657550.9,258.9138,252.7325,52.31543,51.64365
657566.3,260.0991,253.2141,52.44196,51.69672
657582.9,261.0717,253.7318,52.54525,51.75362
657599.8,262.0335,254.5611,52.64692,51.84449
657616.8,263.187,255.6637,52.76822,51.96473
657636,264.1468,256.6629,52.86864,52.07313
657649.8,265.6892,257.948,53.02906,52.21179
657668.4,267.442,258.9899,53.20992,52.32357
657684.4,269.213,260.3596,53.39111,52.46968
657701.5,271.05,263.0197,53.57745,52.75066
657718.6,272.9069,265.9417,53.76414,53.0552
657733.9,275.3096,268.7542,54.00328,53.34431
657751.3,278.7637,271.7229,54.34232,53.6453
657768.4,281.5995,274.0964,54.61655,53.88288
657784.2,285.1801,277.1703,54.95759,54.18661
657804.6,287.6035,279.2332,55.18518,54.38797
657817.1,289.9876,281.8486,55.40657,54.64045
657834.1,292.6865,284.8792,55.65423,54.92915
657851.4,295.4877,287.6801,55.908,55.19233
657867.7,298.3174,290.2066,56.16104,55.42678
657884.5,300.7603,292.724,56.37683,55.65765
657901.8,303.1081,294.9384,56.58195,55.85851
657917.3,306.0356,297.0133,56.83464,56.04484
657934,309.4666,299.5242,57.1265,56.26794
657950.6,312.7155,303.4788,57.39869,56.61413
657967.1,316.3311,307.6624,57.69692,56.97359
657983.6,320.2158,311.9061,58.01197,57.33125
658000.2,325.5699,316.3905,58.43728,57.70178
658018.9,330.142,319.7901,58.79252,57.97772
658034.1,334.1967,322.7957,59.10159,58.21819
658050.4,338.3327,326.7098,59.41122,58.52653
658068.7,341.5609,330.1906,59.64901,58.79626
658086.3,344.3961,333.2766,59.85512,59.03194
658101.9,347.2588,336.4175,60.06067,59.26854
658118.8,349.9829,338.8799,60.25391,59.45176
658134.8,352.7683,340.9077,60.44917,59.60117
658152.2,355.3347,342.9488,60.62703,59.75023
658167,357.6156,345.156,60.78347,59.90993
658185.9,360.0846,347.1696,60.95111,60.0543
658200.9,362.2123,348.4682,61.09417,60.14674
658217.3,364.2261,349.1839,61.2284,60.19747
658233.1,365.9469,348.8823,61.34219,60.17611
658251.4,367.4703,349.2324,61.44225,60.2009
658268.3,368.7396,349.5797,61.52512,60.22545
658284,370.0002,350.1345,61.60699,60.2646
658300.5,371.3873,350.6697,61.69659,60.30228
658317.3,372.8885,351.6975,61.79296,60.37439
658334.8,374.6106,353.1616,61.90279,60.47655
658353.2,376.5881,354.848,62.02794,60.59345
658369.1,379.2354,356.3169,62.19387,60.69458
658384.9,381.6583,357.3788,62.34416,60.7673
658401.4,383.7129,358.3951,62.47044,60.83659
658417.9,385.798,359.3743,62.59751,60.90306
658434,388.0949,360.6838,62.73624,60.99153
658451.4,389.2871,361.5433,62.80773,61.04933
658467.4,390.2648,362.4457,62.86611,61.10979
658484.6,391.0373,362.7425,62.91206,61.12962
658501.3,391.1192,362.6426,62.91693,61.12295
658519.7,390.9122,362.3545,62.90463,61.10369
658535.8,392.3025,362.5267,62.98703,61.1152
658552.2,391.5055,361.4532,62.93985,61.04328
658568.3,390.3698,362.2866,62.87236,61.09914
658584.7,389.1973,361.773,62.80236,61.06474
658602,388.7628,361.5786,62.77633,61.0517
658617.4,388.0338,361.2991,62.73256,61.03293
658637.3,387.6429,360.8341,62.70904,61.00165
658654.7,387.4515,360.362,62.6975,60.96983
658669.6,387.5042,360.2671,62.70068,60.96343
658686.1,387.3808,360.4087,62.69324,60.97298
658701.4,387.598,360.8547,62.70633,61.00304
658718.8,387.7331,361.1713,62.71447,61.02434
658735.4,387.7022,361.4608,62.71261,61.04379
658754.6,387.492,361.616,62.69995,61.05421
658772.6,387.2906,361.7083,62.68781,61.0604
658789.1,387.1596,361.7415,62.6799,61.06263
658804.9,387.348,361.6819,62.69126,61.05863
658825.5,387.3566,361.5599,62.69178,61.05045
658840.3,387.4983,361.4475,62.70033,61.0429
658853.7,387.7198,361.4811,62.71367,61.04515
658866.9,387.9354,361.3977,62.72664,61.03955
658888.6,388.2675,361.4587,62.74661,61.04365
658907.9,388.6391,361.6065,62.76891,61.05357
658924.9,388.9367,361.6302,62.78675,61.05516
658934.2,389.4169,361.7328,62.81549,61.06205
658950.6,390.146,361.5673,62.85902,61.05094
658968,391.0641,361.1879,62.91366,61.02545
658984.4,391.8814,360.8097,62.96212,61.00001
659001.1,392.508,360.4749,62.99917,60.97745
659019.3,392.9518,360.1473,63.02535,60.95535
659035.6,393.0136,359.9063,63.02899,60.93906
659052.8,392.9517,359.6435,63.02534,60.92129
659071.9,392.6236,359.3226,63.00599,60.89956
659086.1,392.3423,359.056,62.98938,60.88148
659102.7,391.9607,358.9253,62.96681,60.87262
659118.8,391.5639,358.8295,62.94331,60.86611
659137.2,391.337,358.7609,62.92986,60.86145
659155.1,391.1727,358.925,62.9201,60.8726
659174.4,391.128,359.0331,62.91745,60.87993
659186.2,391.0871,358.9332,62.91502,60.87315
659202.2,391.1631,359.1332,62.91954,60.88672
659219.1,391.0524,359.3163,62.91296,60.89914
659239.4,390.9496,359.4005,62.90685,60.90483
659252.9,390.6438,359.614,62.88867,60.9193
659272.4,390.4648,359.7526,62.87802,60.92867
659288.8,390.4692,359.7471,62.87828,60.9283
659303,390.4615,359.7657,62.87782,60.92956
659323.5,390.5208,359.8585,62.88135,60.93583
659338.1,390.4616,359.7881,62.87783,60.93107
659354,390.5383,359.7504,62.88239,60.92852
659373.7,390.5755,359.7445,62.88461,60.92813
659389.1,390.5156,359.6006,62.88104,60.91839
659404.6,390.3787,359.3701,62.87289,60.90277
659421.8,390.2774,359.1405,62.86686,60.88722
659438.8,390.2787,358.9146,62.86693,60.87189
659454.3,390.2352,358.7333,62.86434,60.85958
659470.9,390.2053,358.5483,62.86256,60.84701
659490.2,390.1685,358.4201,62.86037,60.83829
659504.6,390.2182,358.1878,62.86333,60.82248
659523.3,390.4039,357.8888,62.87439,60.80211
659540.6,390.5613,357.5211,62.88376,60.77702
659555.7,390.7554,357.1369,62.89531,60.75077
659581.9,390.9187,356.622,62.90502,60.71551
659599.2,391.0482,356.2807,62.91271,60.6921
659613.4,391.089,356.0656,62.91513,60.67733
659621,391.1939,355.8634,62.92137,60.66343
659637.4,390.9836,355.8091,62.90887,60.6597
659652.1,390.8293,355.7747,62.8997,60.65733
659670.9,390.8272,355.6871,62.89958,60.6513
659686.1,390.6602,355.5546,62.88964,60.64218
659703.6,390.5574,355.5099,62.88353,60.63911
659720.5,390.4696,355.3636,62.87831,60.62902
659736.2,390.356,355.1872,62.87154,60.61686
659752.2,390.2151,355.0112,62.86315,60.60472
659769.5,389.97,354.7936,62.84853,60.58969
659786.2,389.5276,354.4842,62.82211,60.56831
659806,389.2337,354.2826,62.80453,60.55436
659821.6,388.751,353.8354,62.77562,60.52337
659837.6,388.4494,353.4661,62.75753,60.49773
659852,388.2184,353.0358,62.74365,60.46781
659870,387.9588,352.6362,62.72805,60.43997
659887.1,387.7717,352.3257,62.71679,60.41831
659902.4,387.6362,352.0692,62.70863,60.40039
659923.2,387.5003,351.7722,62.70044,60.37961
659936.1,387.4549,351.3781,62.69771,60.35201
659951.9,387.4742,351.0166,62.69888,60.32665
659969.9,387.4124,350.742,62.69515,60.30736
659987.6,387.3094,350.52,62.68893,60.29175
660002.9,387.172,350.294,62.68064,60.27584
660020.5,387.0721,349.9469,62.67462,60.25137
660036.9,386.9826,349.6545,62.66921,60.23074
660053.9,386.6199,349.1819,62.6473,60.19733
660073.1,386.2082,348.5336,62.62238,60.15139
660088.7,385.6675,347.2133,62.58959,60.05742
660103.9,385.0136,345.8058,62.54983,59.95666
660122.8,384.0015,344.2732,62.48809,59.84624
660138.8,382.2933,342.1032,62.3833,59.68864
660154.8,380.4339,339.4528,62.2684,59.49411
660174.3,378.077,336.3123,62.12149,59.26067
660189.9,375.9838,333.5358,61.9898,59.05159
660205.4,373.7492,330.6674,61.84795,58.83289
660220.1,370.5919,327.4808,61.64528,58.58663
660237.1,367.7768,324.8093,61.4623,58.37748
660253.1,364.7911,321.9251,61.26585,58.14886
660270.3,362.2985,318.8459,61.09994,57.9015
660286.9,360.0845,315.9496,60.95111,57.66569
660303.4,358.0193,312.9195,60.81101,57.41564
660320.9,356.022,309.9206,60.67434,57.16477
660338.2,354.1722,306.9783,60.54671,56.91528
660357.4,352.8363,304.6163,60.45391,56.71255
660374.6,351.2134,302.2031,60.34046,56.50315
660392.2,349.9374,300.1732,60.25071,56.3252
660404.2,348.598,298.1744,60.15595,56.14833
660420.8,347.2495,295.9602,60.06001,55.95049
660441.4,346.1107,294.1124,59.97854,55.78382
660457.6,345.0667,292.297,59.9035,55.61868
660475.6,343.9249,290.5306,59.82104,55.45664
660491.7,342.6477,288.8817,59.72832,55.30418
660506.3,341.1896,287.0161,59.62183,55.13025
660528.8,339.9411,285.356,59.53011,54.97419
660545.1,338.6756,283.4921,59.43664,54.79752
660571.6,337.7528,281.7323,59.36814,54.6293
660583.4,337.2254,280.8161,59.32887,54.54115
660592.8,336.255,279.7484,59.25638,54.43795
660604.8,335.2771,278.5555,59.18301,54.32204
660623.4,334.4604,277.7467,59.1215,54.24308
660636.9,333.6849,276.9344,59.06288,54.16346
660653.6,332.9674,276.0414,59.00847,54.07558
660669.6,331.7538,274.3012,58.91604,53.90326
660687.9,330.3108,271.7554,58.8055,53.64857
660703.3,328.7178,269.3176,58.68264,53.40176
660720.2,326.9942,267.7508,58.54872,53.24162
660737.3,325.7436,266.7989,58.45091,53.14373
660755.3,325.1146,266.2832,58.40151,53.09052
660771.2,324.6948,265.7586,58.36847,53.03625
660786.8,324.2533,265.2549,58.33364,52.98401
660805.1,323.8476,264.742,58.30158,52.93069
660824,323.6332,264.3558,58.28462,52.89045
660839.1,323.4518,264.0512,58.27025,52.85866
660854.2,323.4398,263.7679,58.2693,52.82905
660872.5,323.5134,263.5582,58.27513,52.80711
660889.6,323.6397,263.6733,58.28513,52.81916
660907.4,323.9121,263.735,58.30669,52.82561
660924,324.2055,263.9451,58.32986,52.84758
660940.2,324.339,264.0638,58.34041,52.85998
660956.9,324.3191,264.2053,58.33884,52.87474
660972.6,324.2425,264.359,58.33279,52.89078
660989.3,324.2292,264.4276,58.33174,52.89794
661006.2,324.0713,264.3367,58.31926,52.88846
661024.3,323.6719,263.9858,58.28768,52.85183
661039.4,323.3313,263.7804,58.2607,52.83036
661055.3,322.8618,263.4295,58.22344,52.79364
661072.5,322.4496,263.0434,58.19066,52.75315
661089.6,322.0392,262.6981,58.15796,52.71688
661105.1,321.6435,262.3529,58.12639,52.68056
661125.1,321.3949,262.0995,58.10652,52.65387
661138.1,321.0642,261.9964,58.08005,52.64299
661154.6,320.8257,261.9436,58.06094,52.63742
661172.7,320.7272,262.0329,58.05304,52.64685
661187.9,320.8067,261.9805,58.05942,52.64132
661204.9,321.1933,261.9297,58.09039,52.63597
661224.3,321.5149,261.9062,58.11611,52.63348
661242.7,321.7215,261.8693,58.13262,52.62959
661257.9,321.8829,261.8939,58.1455,52.63219
661273.5,322.0589,261.9186,58.15954,52.6348
661291.3,322.0134,261.8716,58.15591,52.62983
661309.3,322.0117,261.7878,58.15577,52.62098
661325.2,321.9094,261.727,58.14761,52.61456
661340.3,321.8064,261.6079,58.13939,52.60198
661359.4,321.6956,261.5077,58.13054,52.59139
661375.5,321.5818,261.4817,58.12145,52.58865
661392.8,321.3654,261.4616,58.10416,52.58652
661409.3,321.2337,261.4632,58.09362,52.58669
661423.8,321.103,261.456,58.08316,52.58593
661441.3,320.9932,261.4296,58.07436,52.58313
661457.8,320.9212,261.2704,58.06859,52.56628
661472.1,320.8132,261.1436,58.05993,52.55286
661490.5,320.7438,261.0893,58.05437,52.54711
661508.8,320.7916,261.1199,58.0582,52.55036
661527.3,320.8496,261.1414,58.06285,52.55263
661539.5,321.0058,261.088,58.07537,52.54697
661556.1,321.0704,261.0368,58.08055,52.54155
661573.6,321.0485,260.9315,58.07879,52.53038
661589.4,320.903,260.9401,58.06713,52.5313
661605.4,320.8116,260.9948,58.05981,52.5371
661623.8,320.6806,261.0921,58.0493,52.54741
661641.9,320.4497,261.1079,58.03077,52.54908
661669.9,320.1722,260.8876,58.00847,52.52574
661680.3,320.035,260.7796,57.99743,52.51428
661689.3,319.7992,260.4913,57.97845,52.48367
661704.9,319.6052,260.3175,57.96282,52.46519
661721.4,319.426,260.2378,57.94836,52.45672
661738.1,319.3571,260.1793,57.94281,52.45049
661754.9,319.1935,260.2999,57.9296,52.46332
661774.4,318.9702,260.4579,57.91155,52.48012
661797,318.7786,260.594,57.89606,52.49457
661808.6,318.5451,260.5825,57.87715,52.49335
661824.1,318.0435,260.3758,57.83648,52.47139
661839.1,316.9241,260.1498,57.74537,52.44736
661854.1,315.0517,259.8074,57.59195,52.41089
661871.1,313.2644,259.9091,57.44428,52.42172
661888.7,311.5522,260.2192,57.30169,52.45474
661904.9,310.2363,260.7771,57.19135,52.51401
661922.4,309.5762,261.0644,57.13574,52.54447
661938.8,309.4601,261.2152,57.12594,52.56045
661954.8,309.674,261.0614,57.14399,52.54415
661975.3,309.895,261.0052,57.16261,52.5382
661991.9,310.2188,260.9428,57.18987,52.53159
662011.4,310.3251,261.0178,57.19881,52.53954
662024.8,310.3177,261.0099,57.19818,52.5387
662041.4,310.0807,260.9112,57.17825,52.52824
662060.6,309.7966,260.7822,57.15432,52.51455
662076.8,309.359,260.4921,57.11741,52.48376
662093.4,308.7547,260.2701,57.06631,52.46015
662109.3,307.8943,259.8152,56.99331,52.41171
662126.9,306.4132,259.1569,56.86697,52.34143
662150.1,305.5949,258.7875,56.79681,52.3019
662159.4,304.4742,258.1489,56.70028,52.23338
662175.1,302.8783,257.3919,56.56197,52.15189
662194.3,301.4673,256.5565,56.43883,52.06161
662210.3,299.7973,255.357,56.29206,51.93134
662227.3,297.9021,254.0307,56.12411,51.78641
662245,296.0786,252.294,55.96112,51.59523
662261.1,294.3151,250.4804,55.80217,51.39383
662275.6,292.3804,248.4567,55.6263,51.167
662292.5,289.7915,245.452,55.38845,50.82606
662319,287.0884,241.8459,55.13702,50.41018
662337,284.9241,238.7053,54.9334,50.04193
662344.5,283.3651,236.3355,54.78543,49.76028
662356.4,281.2616,232.9862,54.58406,49.35656
662374,279.9127,229.4346,54.45387,48.92107
662395.2,278.8866,227.4796,54.35428,48.67808
662409.8,277.37,225.595,54.20619,48.44158
662425.3,276.2662,224.1549,54.09774,48.25937
662441.5,275.7009,223.0137,54.04197,48.11406
662459.9,274.9059,221.9849,53.96329,47.98234
662474.6,273.7693,220.8728,53.8503,47.8392
662494.1,272.6972,219.6707,53.74314,47.68359
662510.7,271.9863,218.5524,53.67179,47.53798
662528.1,270.7511,217.3345,53.54724,47.37849
662543.6,269.8405,216.3201,53.45495,47.24489
662558.9,268.7835,215.0995,53.34732,47.08326
662575.6,267.4807,213.824,53.2139,46.91328
662592.4,266.2019,212.7311,53.08212,46.76678
662608.9,264.513,211.7471,52.90684,46.6342
662625.7,262.7255,210.8183,52.71977,46.50846
662643.8,261.4308,210.0642,52.58326,46.40593
662658.7,260.6084,208.7924,52.49611,46.23214
662676.6,259.5673,207.5857,52.38527,46.06623
662693.8,258.3071,206.1906,52.25038,45.87315
662709.4,256.9933,205.4582,52.10887,45.77125
662726.1,255.9074,205.3684,51.99121,45.75874
662742.7,255.0547,205.7285,51.89839,45.80891
662760.3,254.2626,205.9631,51.81182,45.84154
662777.7,253.6053,206.2862,51.73973,45.88643
662796.5,252.8056,206.2159,51.65171,45.87667
662808.9,252.0534,206.2218,51.5686,45.87749
662825.1,251.7596,206.3469,51.53606,45.89486
662842.1,251.65,206.3745,51.52391,45.89868
662860.6,251.818,206.4854,51.54254,45.91406
662876.3,251.8807,206.469,51.54949,45.91179
662891.1,252.259,206.2251,51.59136,45.87794
662909.6,252.4598,206.0843,51.61355,45.85839
662925.2,252.6616,205.8138,51.63583,45.82078
662941.6,252.982,205.8303,51.67116,45.82307
