Time Stamp(ms),Intersection,,Angle,
,x,y,x,y
150695.2,313.3548,242.2994,57.45178,50.46288
150705.9,313.3728,242.3836,57.45327,50.47266
150718.4,313.3486,242.4551,57.45126,50.48095
150738.7,313.3434,242.4868,57.45083,50.48463
150753,313.3217,242.5019,57.44904,50.48637
150770.4,313.4465,242.6236,57.45938,50.50049
150786.6,313.5988,242.7908,57.472,50.51986
150803.3,313.6906,242.9626,57.4796,50.53975
150825,313.8244,243.1489,57.49067,50.56129
150838.4,314.0045,243.2573,57.50558,50.57382
150854.5,314.1995,243.4057,57.52169,50.59097
150871.5,314.3695,243.4835,57.53573,50.59995
150886.6,314.4531,243.5638,57.54263,50.60921
150904.1,314.5129,243.6351,57.54755,50.61744
150919.7,314.577,243.6956,57.55285,50.6244
150936.1,314.5074,243.7463,57.5471,50.63026
150956.5,314.4478,243.6826,57.54219,50.62291
150972.6,314.3993,243.7543,57.53818,50.63118
150990.4,314.3024,243.7649,57.53018,50.6324
151007.3,314.1256,243.7843,57.51558,50.63463
151022.5,313.9877,243.8551,57.50418,50.6428
151040.2,313.9127,243.9192,57.49798,50.65018
151052.5,313.8825,244.0248,57.49548,50.66233
151070.5,313.75,244.0928,57.48452,50.67016
151090.8,313.5665,244.2031,57.46932,50.68285
151107,313.4167,244.3239,57.45691,50.69674
151124.7,313.358,244.4879,57.45204,50.71559
151136.7,313.3287,244.7294,57.44961,50.74331
151156.8,313.2099,244.9076,57.43975,50.76374
151174.7,313.0679,245.0334,57.42797,50.77815
151186.4,312.8162,245.1932,57.40706,50.79645
151202.9,312.5946,245.3222,57.38863,50.8112
151219.2,312.3626,245.5638,57.36932,50.83882
151239.6,312.2448,245.9865,57.3595,50.88707
151256.2,312.1251,246.531,57.34953,50.94907
151273.6,311.8917,247.3905,57.33005,51.04659
151287,311.5602,248.2092,57.30236,51.13911
151313.2,311.3438,248.9917,57.28426,51.22719
151324.4,311.093,249.8078,57.26326,51.3187
151339.9,310.8936,250.9822,57.24654,51.44974
151354.2,310.62,252.9735,57.22359,51.67022
151371.2,310.2758,254.8892,57.19466,51.88033
151391.5,309.9198,256.8195,57.1647,52.09007
151407.5,309.5979,258.1879,57.13757,52.23757
151421.2,309.3044,259.4279,57.1128,52.3704
151440.6,309.0579,260.5286,57.09196,52.48763
151457.1,308.8218,261.7051,57.07199,52.61226
151471.1,308.6599,262.923,57.05828,52.74051
151487,308.5462,264.1122,57.04865,52.86502
151510.3,308.31,264.8147,57.02861,52.93825
151526.2,308.0373,265.1062,57.00546,52.96857
151541.8,307.9822,264.9157,57.00078,52.94876
151558.9,307.9444,265.0413,56.99757,52.96181
151575.4,307.8413,265.0897,56.98881,52.96684
151592,307.7676,265.2389,56.98254,52.98234
151608.1,307.6613,265.4546,56.97349,53.00473
151625.7,307.4863,265.4743,56.95859,53.00677
151642.5,307.3477,265.432,56.94679,53.00239
151657.7,307.3034,265.4173,56.94302,53.00087
151672.8,307.1694,265.3506,56.93159,52.99395
151691.2,306.9007,265.3253,56.90865,52.99132
151707.3,306.5019,265.2538,56.87457,52.9839
151724.1,306.0617,265.164,56.83687,52.97456
151746.1,305.8586,265.1086,56.81945,52.96881
151762,305.6105,265.2732,56.79815,52.98591
151777.9,305.2313,265.4236,56.76554,53.00152
151791.6,304.6489,265.5785,56.71536,53.01758
151807.6,303.9011,265.8849,56.65073,53.04933
151823.2,303.2597,266.2372,56.59512,53.08577
151840,302.5141,266.6823,56.53026,53.13171
151858.3,301.7374,266.9683,56.46247,53.16119
151873.6,300.7942,267.3994,56.37981,53.20554
151891.7,300.0656,267.8452,56.31571,53.2513
151908.3,299.5172,268.243,56.26733,53.29206
151922.8,298.9981,268.6529,56.22142,53.33397
151940.2,298.5075,268.9957,56.17792,53.36897
151956.5,297.9466,269.3949,56.12807,53.40964
151976.7,297.4786,269.784,56.08638,53.44921
151992.3,296.9564,270.1602,56.03975,53.48739
152010.4,296.5139,270.3976,56.00016,53.51146
152025.3,296.1031,270.6768,55.96332,53.53973
152044.2,295.7781,271.0213,55.93413,53.57455
152060.3,295.4782,271.3683,55.90715,53.60958
152076.3,295.1118,271.7049,55.87415,53.64349
152091.9,294.5211,272.0877,55.8208,53.68199
152109.1,293.8912,272.5233,55.76377,53.72572
152125.6,293.3079,272.9369,55.71081,53.76715
152141.8,292.6657,273.5315,55.65234,53.82658
152164.7,292.213,274.0412,55.61101,53.87738
152182.6,291.7866,274.5686,55.57199,53.92982
152192.7,291.2843,275.2871,55.52594,54.00106
152208.5,290.6051,276.4255,55.4635,54.11342
152226.8,290.1474,277.2216,55.42131,54.19164
152243.3,289.667,278.5531,55.37694,54.3218
152259.6,289.2168,280.0333,55.33526,54.46554
152274.7,288.6801,282.1001,55.28545,54.66457
152292.3,288.2711,284.1018,55.24743,54.85549
152308.9,288.0862,286.5367,55.2302,55.08531
152325.6,287.842,288.6566,55.20744,55.28328
152341.8,287.6962,291.4731,55.19383,55.54327
152358.1,287.4571,294.2033,55.1715,55.79205
152373.8,287.2205,297.6982,55.14938,56.10595
152393.4,287.1309,300.4468,55.141,56.34928
152408.9,287.1364,303.3402,55.14151,56.6021
152425.8,287.0905,305.8677,55.13721,56.82023
152441.2,287.024,308.3606,55.13099,57.03291
152461.8,286.935,310.7462,55.12266,57.23418
152476.7,286.7898,313.014,55.10905,57.4235
152492.8,286.4591,315.4187,55.07803,57.62212
152510,286.0745,317.7165,55.04189,57.80991
152525.4,285.6771,319.6069,55.00448,57.96295
152541.2,285.1925,321.4092,54.95876,58.10766
152557.7,284.8752,323.1436,54.92877,58.24582
152574,284.6226,324.9972,54.90487,58.39228
152590.5,284.4144,327.399,54.88514,58.58027
152612.3,284.4535,329.2825,54.88885,58.7263
152626.1,284.7227,331.2544,54.91434,58.87786
152641.2,284.8666,333.2943,54.92796,59.03328
152658.1,285.1359,334.9776,54.95341,59.16048
152673.5,285.4807,336.9044,54.98596,59.30492
152691.3,285.9049,339.0072,55.02593,59.46119
152711.6,286.6635,340.9894,55.09721,59.60717
152729.8,287.1552,342.3655,55.14327,59.70777
152741.5,287.7435,343.4145,55.19825,59.78405
152757.9,288.21,344.1901,55.24173,59.84023
152774.1,288.5732,344.7962,55.27552,59.884
152791.8,288.9659,345.2709,55.312,59.9182
152807.7,289.5604,345.4892,55.36707,59.93391
152825.7,290.0497,345.7206,55.4123,59.95054
152842.9,290.1258,345.3979,55.41932,59.92734
152858,290.1011,344.8728,55.41704,59.88953
152874.9,290.1138,344.0576,55.41821,59.83065
152892.3,289.9648,343.1495,55.40446,59.76481
152909,289.6748,342.4539,55.37766,59.71421
152925.1,289.1869,341.7931,55.33249,59.66599
152941.7,288.4801,340.6816,55.26687,59.58458
152958.9,288.059,339.6222,55.22766,59.50661
152974.3,287.7388,338.4973,55.19781,59.42343
152992,287.3149,337.5682,55.15821,59.35441
153009.1,286.5318,336.4131,55.08485,59.26821
153026.7,285.5789,335.1637,54.99522,59.17449
153042.4,284.5334,333.9478,54.89642,59.08278
153059.1,283.5266,332.8304,54.80081,58.99806
153074.7,282.3686,331.584,54.69029,58.90307
153096.6,280.907,330.2229,54.54992,58.79874
153113.5,279.3183,328.8137,54.39624,58.69006
153132.4,277.9285,327.6861,54.26085,58.60261
153149.3,275.8469,326.0138,54.05639,58.4721
153170.9,274.5675,324.924,53.92972,58.38651
153181.4,273.4106,324.0044,53.81451,58.31398
153194.5,271.8734,322.8647,53.66045,58.22367
153210.9,269.5603,321.2917,53.42647,58.09826
153225.8,267.2011,319.748,53.18515,57.97433
153244.3,265.4773,318.6023,53.00709,57.88179
153259.2,263.7102,317.5938,52.82302,57.79993
153275.3,261.1897,316.2025,52.55774,57.6864
153293.2,258.3174,314.7247,52.25148,57.56502
153310.2,255.6194,313.3582,51.9599,57.45205
153326.5,252.7926,312.3018,51.65028,57.36425
153343.4,250.2891,311.3317,51.37249,57.28325
153359.8,247.472,310.1691,51.05582,57.18569
153380.1,244.7021,308.9863,50.74018,57.08591
153398.1,242.2424,308.1903,50.45627,57.01846
153409.5,239.3984,307.1436,50.12369,56.92939
153428.1,236.4565,306.0298,49.77474,56.83414
153448.3,232.5574,304.7634,49.30437,56.72524
153466.7,228.7965,303.8058,48.84202,56.64248
153480.2,225.666,303.2336,48.45053,56.59285
153498,222.5594,302.7678,48.05598,56.55236
153517.2,218.9499,301.8829,47.58983,56.47519
153531.9,215.3943,301.17,47.12238,56.41279
153545.8,211.4532,300.6917,46.59447,56.3708
153565.9,208.1313,300.2781,46.14137,56.33443
153579.1,204.9915,299.7144,45.70613,56.28474
153597,201.2949,298.7611,45.18488,56.20042
153615.2,197.6934,298.0077,44.6677,56.13351
153631.3,194.2917,297.5108,44.17057,56.08925
153649.5,191.5092,297.0871,43.75761,56.05143
153665,188.7377,296.3109,43.34052,55.98196
153681.8,186.2767,295.4377,42.96531,55.9035
153698.8,184.0704,294.6199,42.62498,55.82974
153715,181.8864,294.1259,42.28439,55.78504
153730.5,179.5966,293.9441,41.92329,55.76857
153748,177.9756,293.7888,41.66518,55.75448
153764,177.0396,293.4632,41.51519,55.72493
153780.3,176.4247,292.9944,41.41628,55.68229
153795.9,176.2482,292.7138,41.38783,55.65672
153813.8,175.9612,292.4733,41.3415,55.63477
153829.4,175.857,292.3215,41.32468,55.62091
153846.8,176.5355,292.0078,41.43412,55.59224
153866.8,177.205,291.8257,41.54175,55.57557
153879.8,177.6016,291.6734,41.60534,55.56163
153896.1,178.0365,291.6405,41.67492,55.55861
153913.1,178.1911,291.5237,41.69962,55.5479
153930.3,178.7393,291.4321,41.78704,55.53951
153946.5,179.2747,291.1802,41.87221,55.51639
153963.7,179.4812,290.9295,41.905,55.49335
153980.4,179.1342,290.6864,41.84988,55.47099
153996.4,179.0488,290.4615,41.8363,55.45028
154012.8,179.2755,290.2097,41.87233,55.42706
154030.1,179.9071,289.9041,41.9725,55.39885
154047.1,180.3004,289.5723,42.03472,55.36818
154063.7,180.2514,289.1136,42.02699,55.32569
154080.8,180.2532,288.7255,42.02726,55.28967
154096.9,180.6874,288.273,42.09583,55.2476
154120.3,181.3043,287.7465,42.19299,55.19852
154130.7,181.9376,287.1313,42.29241,55.14104
154146.3,182.4752,286.371,42.37657,55.06976
154168.7,182.6521,285.8744,42.40422,55.02306
154185.4,182.924,285.3745,42.44666,54.97595
154197.7,183.5474,284.2927,42.54375,54.8736
154215.5,184.0521,283.4433,42.62214,54.79288
154231,184.3663,282.6678,42.67083,54.71891
154248.1,184.5864,281.8177,42.70491,54.6375
154265,184.8891,280.7609,42.7517,54.53583
154283.3,185.3164,279.5426,42.81764,54.41801
154300.2,185.7024,278.5822,42.87708,54.32464
154316.7,186.0712,277.5468,42.93375,54.22351
154332,186.0699,275.922,42.93356,54.0638
154349.3,185.9725,273.5821,42.91861,53.83162
154366.3,186.0759,271.939,42.93449,53.66704
154381.9,186.3709,270.2203,42.97975,53.49349
154401.4,186.6823,268.7148,43.02746,53.3403
154417,186.9545,266.3933,43.0691,53.10189
154432.6,187.1874,263.8857,43.10468,52.84137
154448.5,187.7399,261.6885,43.18894,52.6105
154467,188.2494,259.885,43.26643,52.41916
154482.7,188.8131,257.9339,43.35195,52.21027
154499.1,189.297,255.3793,43.42515,51.93377
154515.5,189.632,252.5993,43.47573,51.62895
154532.9,189.8335,249.7398,43.50611,51.31108
154549.4,190.0694,247.1661,43.54165,51.02117
154567.4,190.4644,245.0944,43.60104,50.78514
154583.6,191.2168,242.1609,43.71387,50.4468
154599.6,191.9248,238.4564,43.81965,50.01251
154616,192.4507,234.4049,43.89798,49.52838
154632.7,192.8896,230.7794,43.96319,49.08686
154649.7,193.5517,227.33,44.0613,48.65938
154669.1,194.2251,223.5404,44.16076,48.18123
154685.1,194.9514,219.4341,44.26764,47.65284
154700.1,195.4877,214.9198,44.34631,47.05937
154718.5,195.8351,211.1657,44.39717,46.55555
154731.9,196.1774,207.2512,44.44718,46.02006
154752.2,196.7361,202.8541,44.52865,45.40592
154770.9,197.142,198.9382,44.58768,44.84751
154789.4,197.5158,195.2433,44.64194,44.31048
154803.3,198.0876,192.1969,44.72476,43.86021
154820.1,198.6257,189.1544,44.80247,43.4036
154838.8,199.1699,186.435,44.88085,42.98957
154852.5,199.8274,183.6577,44.97527,42.56089
154870.1,200.6589,181.3785,45.09423,42.20465
154886.3,201.6012,179.3262,45.22843,41.88039
154902.2,202.5033,177.3738,45.35634,41.56883
154918.9,203.3968,175.9381,45.48245,41.33778
154935.6,204.38,174.4351,45.62057,41.09414
154953.8,205.1651,172.7184,45.73038,40.81363
154970.3,205.8331,171.1409,45.82346,40.55375
154987.9,206.4407,169.65,45.90786,40.30628
155005.3,207.1382,168.461,46.00444,40.1076
155021.8,207.8548,167.7734,46.10331,39.99218
155038.4,208.5359,166.901,46.19695,39.84516
155054.2,209.3556,166.4144,46.30923,39.76289
155072.5,210.0013,165.9522,46.39736,39.68456
155089.1,210.8164,165.6772,46.5082,39.63788
155103.9,212.0485,165.7849,46.67488,39.65617
155121.8,213.2607,165.7911,46.83787,39.65722
155136.4,214.4237,165.9108,46.99332,39.67753
155152.4,215.3029,165.8926,47.11026,39.67446
155170.3,216.0882,165.8643,47.21426,39.66964
155187,217.2699,166.1915,47.36999,39.72514
155204.2,218.6316,166.434,47.54832,39.76622
155220.8,220.0762,166.7869,47.73619,39.82589
155236.9,221.5723,167.0813,47.92933,39.87561
155254.5,223.061,167.4004,48.12009,39.9294
155270.9,225.2462,167.9495,48.39757,40.02177
155289.2,227.4832,168.4879,48.67852,40.11211
155305.3,230.4713,169.0005,49.04898,40.19789
155323.3,233.3111,169.3998,49.396,40.26457
155340.5,236.1903,169.8302,49.74292,40.33629
155355.9,239.4245,170.2237,50.12677,40.40173
155370.5,244.6205,171.084,50.73081,40.54433
155389.3,248.634,171.7529,51.18697,40.65481
155404.1,254.1941,172.7289,51.80432,40.81535
155420.6,259.3096,173.7492,52.35776,40.98235
155438.2,264.1106,174.7387,52.86486,41.1435
155453.5,269.8568,175.8221,53.45661,41.31903
155470.9,275.0219,176.7492,53.9748,41.46852
155486.6,280.2802,177.6641,54.48942,41.61534
155503.4,286.0021,178.535,55.03508,41.7545
155520.5,291.0185,179.2628,55.50153,41.87031
155537.6,295.2337,179.9848,55.88514,41.98481
155552.8,299.392,180.4792,56.25627,42.06297
155569.6,304.3992,181.0658,56.69381,42.15545
155588,308.5607,181.3727,57.04988,42.20374
155604.5,312.485,181.6673,57.37951,42.25001
155619.8,316.2993,181.9239,57.69432,42.29027
155636.4,319.9182,182.0339,57.98803,42.3075
155653.2,323.2914,182.0475,58.25754,42.30964
155670.2,326.8337,182.2401,58.53621,42.3398
155693.5,330.5569,182.4376,58.82441,42.3707
155709.9,333.499,182.5435,59.0488,42.38725
155723.4,336.723,182.6642,59.29138,42.40612
155736.5,339.9048,182.8988,59.52744,42.44274
155751.9,343.293,183.3267,59.77524,42.50941
155770.9,345.946,183.5809,59.96672,42.54896
155786.6,348.7286,183.8534,60.16522,42.5913
155803.1,351.8991,184.0188,60.38849,42.61697
155820.9,354.9691,184.2526,60.60181,42.65323
155845.6,357.5839,184.5006,60.78131,42.69163
155855.6,359.5485,184.6924,60.91486,42.72131
155869.8,361.6787,184.7695,61.05842,42.73323
155893.8,363.778,184.529,61.19863,42.69602
155912.9,366.6172,184.3933,61.38629,42.67502
155925.9,368.5565,184.3464,61.51319,42.66776
155938.8,370.4957,184.5041,61.63906,42.69217
155954.4,372.2636,184.6813,61.75292,42.71958
155971.8,373.9501,184.8384,61.86076,42.74387
155989.1,375.7665,184.8596,61.97606,42.74715
156004.7,377.8706,184.9341,62.10855,42.75866
156021.5,379.8947,185.0609,62.23491,42.77822
156038.1,381.5489,185.1846,62.3374,42.79731
156054,383.3754,185.2487,62.44976,42.80719
156071.6,385.3223,185.3282,62.56861,42.81945
156088.2,387.4314,185.4725,62.69629,42.84168
156105.2,389.566,185.6209,62.82441,42.86453
156121.7,391.6673,185.8192,62.94944,42.89504
156141.7,393.6516,186.159,63.06654,42.94724
156165.9,395.6894,186.5083,63.18582,43.00081
156176.8,397.0791,186.6955,63.26661,43.02948
156189.7,398.9843,186.8438,63.37663,43.05217
156205.8,401.0122,186.6461,63.49283,43.02192
156224.3,403.522,186.5954,63.63533,43.01416
156241,406.0008,186.7698,63.77468,43.04085
156260.3,408.2019,186.8738,63.89729,43.05676
156278.9,409.5735,186.9513,63.97315,43.06861
156290.6,411.6048,187.0011,64.08474,43.07623
156308.3,413.3316,187.2054,64.17892,43.10744
156325,415.0287,187.4477,64.27084,43.14441
156342.3,416.5986,187.6272,64.35535,43.17178
156357.9,418.3708,187.8873,64.45011,43.21139
156374.3,420.3293,188.3714,64.55408,43.28497
156391.9,421.9836,188.9356,64.64129,43.37049
156410.2,423.5389,189.4415,64.72277,43.44699
156428.2,424.89,189.9066,64.79317,43.51714
156444,426.2419,190.5031,64.86323,43.60685
156460.6,427.386,191.3962,64.92223,43.74072
156478.3,428.2211,191.9645,64.96514,43.82557
156492.6,428.8025,192.9398,64.99494,43.97065
156512.1,429.1263,193.6947,65.0115,44.08244
156527.7,429.3872,194.3591,65.02483,44.1805
156546.2,429.5486,195.0487,65.03307,44.28193
156560.8,429.5749,195.8072,65.03442,44.39308
156576.2,429.358,196.762,65.02335,44.53242
156592.8,428.7694,197.8125,64.99325,44.68495
156611.8,428.1921,198.7839,64.96366,44.82527
156626.9,428.0673,199.5284,64.95725,44.93237
156642.6,428.071,200.2684,64.95744,45.03842
156658.2,427.9261,201.2401,64.95,45.17708
156681.3,427.7725,202.1882,64.94211,45.31173
156692.7,427.7166,203.0934,64.93924,45.43969
156708.7,427.7747,204.2108,64.94223,45.59684
156726.1,427.8745,205.3151,64.94735,45.75131
156745.1,427.9175,206.7248,64.94956,45.94725
156761.5,427.7881,208.0543,64.94291,46.13077
156776.8,427.5518,209.3967,64.93077,46.31486
156793,427.2765,211.0038,64.9166,46.53361
156810.2,427.0228,212.6479,64.90353,46.7556
156827.1,426.7762,214.5473,64.89082,47.00981
156847,426.5689,216.4362,64.88012,47.26022
156862,426.3545,218.3581,64.86905,47.5126
156875.8,426.2403,220.7516,64.86314,47.82356
156892.8,426.0573,223.1798,64.85368,48.13526
156909.7,425.9267,225.3832,64.84692,48.41486
156925.3,425.7557,228.098,64.83807,48.75519
156944.7,425.6928,230.7337,64.83482,49.08125
156960.9,425.7144,233.5433,64.83593,49.42416
156976.9,425.8429,236.5019,64.84259,49.78017
156993.2,426.018,239.5697,64.85165,50.14385
157009.8,426.149,242.4857,64.85842,50.4845
157025.7,426.2715,245.7197,64.86476,50.85662
157042.8,426.2808,248.5631,64.86523,51.17899
157061.8,426.238,251.224,64.86303,51.47662
157080.4,426.2631,253.4492,64.86433,51.72258
157096,426.3167,255.8049,64.86709,51.98007
157110.4,426.3759,257.992,64.87016,52.21652
157127.8,426.2788,259.9123,64.86514,52.42206
157145,426.2651,262.0037,64.86443,52.64377
157160.7,426.2419,263.8409,64.86323,52.83669
157177.1,426.2402,265.37,64.86314,52.99596
157193.7,426.0703,266.9858,64.85435,53.16299
157213.1,425.8995,268.7135,64.84552,53.34017
157229.2,425.5265,270.1832,64.82619,53.48973
157246,425.1568,271.5042,64.80701,53.62326
157265,424.6053,272.4983,64.77836,53.72321
157278.1,424.0827,273.3298,64.75114,53.80644
157293.6,423.6951,274.0395,64.73093,53.87722
157310.5,423.4122,274.8675,64.71616,53.95949
157326.9,423.3174,275.7099,64.7112,54.04286
157344,423.0447,276.6264,64.69694,54.13319
157362.3,422.8686,277.3524,64.68771,54.20447
157377.9,422.9182,277.9387,64.69032,54.26184
157391.8,422.9968,278.6411,64.69443,54.33038
157410.5,423.2166,279.3366,64.70592,54.39802
157428.6,423.3103,280.0819,64.71083,54.47025
157446.2,423.3888,280.6407,64.71493,54.52424
157461.8,423.5116,280.9231,64.72135,54.55146
157476.8,423.5701,281.3177,64.7244,54.58945
157495.7,423.4184,281.694,64.71648,54.62562
157511.4,423.1261,281.9713,64.70119,54.65223
157529.8,422.7426,282.1824,64.68111,54.67246
157545.2,422.3068,282.2244,64.65826,54.67648
157561.9,421.8068,282.2608,64.632,54.67996
157578.5,420.9889,282.3803,64.58892,54.6914
157594.2,419.9036,282.4458,64.53155,54.69767
157616.5,418.6308,282.4335,64.46396,54.69649
157630.5,416.9949,282.3068,64.37659,54.68436
157644,415.1147,282.3044,64.27548,54.68414
157664.2,412.9633,282.2519,64.15888,54.67911
157679.2,410.3698,282.0624,64.01701,54.66096
157695.9,407.4212,282.0173,63.85393,54.65663
157712.9,404.8436,281.9308,63.7098,54.64834
157728.5,400.9796,281.7671,63.49097,54.63264
157745.4,397.4782,281.5567,63.28973,54.61243
157762.2,393.6268,281.306,63.06508,54.58833
157781.8,390.5929,281.2139,62.88564,54.57947
157796.4,386.6866,281.1318,62.65133,54.57157
157812,382.9601,280.9734,62.4243,54.55632
157831.7,379.2046,280.799,62.19195,54.53951
157850.7,376.532,280.7321,62.0244,54.53306
157863,373.3363,280.7474,61.8216,54.53453
157879.6,370.2634,280.7309,61.62403,54.53294
157897.2,367.3697,280.6465,61.43565,54.5248
157914.6,364.7261,280.5452,61.26154,54.51502
157933.8,362.6391,280.5709,61.12271,54.5175
157947.8,360.3375,280.7298,60.96818,54.53283
157964.1,358.1416,280.9213,60.81934,54.55129
157981,355.7161,281.1469,60.6533,54.57302
157998.5,353.3911,281.3781,60.49251,54.59526
158013.4,350.6671,281.6442,60.30209,54.62084
158031.4,348.2481,281.8224,60.13111,54.63794
158047.8,345.7249,281.9252,59.95084,54.6478
158064.7,343.0484,282.0713,59.75747,54.66181
158081.4,340.3599,282.2213,59.56094,54.67619
158099.6,338.1491,282.448,59.39759,54.69789
158114.7,335.713,282.5865,59.21576,54.71113
158132.1,333.257,282.4793,59.03046,54.70087
158149,331.0476,282.3247,58.86203,54.68609
158164.8,327.9877,282.1888,58.62604,54.67307
158187.4,326.1309,282.2148,58.48126,54.67556
