Time Stamp(ms),Intersection,,Angle,
,x,y,x,y
1368242,320.1549,245.4844,58.00708,50.82975
1368272,320.1024,245.6075,58.00285,50.84381
1368304,320.16,245.7435,58.00749,50.85935
1368337,320.3276,245.8133,58.02096,50.86731
1368370,320.2777,245.8597,58.01695,50.87261
1368403,320.1972,245.9561,58.01048,50.8836
1368435,320.0303,245.8282,57.99706,50.86901
1368467,319.9466,245.7912,57.99031,50.86479
1368500,319.8178,245.7159,57.97995,50.8562
1368533,319.914,245.6753,57.98769,50.85156
1368567,319.9086,245.7445,57.98726,50.85946
1368600,319.6467,245.6218,57.96616,50.84546
1368632,319.0334,245.6477,57.91666,50.84842
1368666,317.4728,245.6268,57.79009,50.84602
1368699,314.4154,245.6016,57.53952,50.84315
1368734,310.4502,245.6096,57.20932,50.84406
1368772,305.4294,245.816,56.78258,50.86762
1368801,299.877,246.2218,56.29909,50.91388
1368833,295.497,246.8928,55.90884,50.99017
1368866,291.2509,249.5452,55.52288,51.28929
1368902,286.9524,252.5912,55.12429,51.62806
1368934,282.9759,254.7728,54.74833,51.86761
1368969,279.5533,255.3986,54.41904,51.93587
1368996,276.0637,257.3522,54.07778,52.14761
1369029,271.8699,259.1331,53.66009,52.33889
1369065,268.9483,259.7607,53.36413,52.40591
1369096,265.998,260.3268,53.06103,52.46618
1369129,263.0273,260.8004,52.75147,52.51649
1369162,260.9806,261.2067,52.53559,52.55954
1369194,258.4142,263.2382,52.26187,52.77359
1369229,255.5961,265.186,51.95737,52.97686
1369260,251.9055,266.0274,51.55223,53.06407
1369294,247.6835,267.7269,51.07974,53.23917
1369330,243.277,269.2391,50.5761,53.39377
1369362,239.2832,270.6325,50.11012,53.53524
1369394,237.492,271.4813,49.89814,53.62096
1369429,236.0487,272.3013,49.72596,53.70344
1369461,234.1181,272.7037,49.49374,53.7438
1369490,232.751,273.0336,49.32795,53.77683
1369524,231.6265,273.0472,49.19073,53.77819
1369561,230.6344,273.0371,49.06904,53.77718
1369595,230.0392,273.0122,48.99575,53.77469
1369629,229.4912,272.4239,48.92807,53.71574
1369658,229.0448,271.9516,48.87282,53.66831
1369697,230.274,270.837,49.02469,53.55593
1369727,231.6213,268.428,49.1901,53.31099
1369761,233.3144,264.2606,49.39641,52.88052
1369793,236.1484,259.3922,49.7379,52.36659
1369827,238.6324,254.0885,50.03333,51.79274
1369864,240.9672,249.9069,50.30771,51.32978
1369895,243.4044,246.9399,50.59081,50.99552
1369925,245.781,244.0565,50.86362,50.66598
1369957,248.2084,241.6756,51.13902,50.39036
1369994,250.2985,240.1514,51.37354,50.2122
1370026,252.6026,238.8988,51.62932,50.06479
1370059,254.8437,237.9104,51.87536,49.94783
1370090,256.8053,236.7416,52.08853,49.80878
1370130,258.3072,235.8005,52.25039,49.69623
1370162,259.6405,234.2334,52.39309,49.50768
1370193,261.0972,233.1425,52.54795,49.37554
1370225,262.0161,231.9519,52.64507,49.23051
1370256,262.7934,230.7591,52.7269,49.08437
1370290,263.6629,229.8384,52.81807,48.97097
1370325,264.3928,228.5426,52.89431,48.81049
1370357,265.2953,227.4337,52.9882,48.67234
1370390,266.9007,226.1543,53.15423,48.512
1370425,268.2459,224.0852,53.29236,48.25053
1370459,269.5434,222.5143,53.42475,48.0502
1370492,270.2942,220.3468,53.50099,47.77123
1370524,270.3813,218.2663,53.50981,47.5006
1370556,270.9627,216.3526,53.56863,47.24919
1370593,272.5023,214.1279,53.72361,46.95388
1370620,275.4026,211.9004,54.01249,46.65489
1370656,278.6096,210.4046,54.32731,46.45225
1370701,283.1293,209.176,54.76296,46.28468
1370725,288.3,208.5353,55.25011,46.19688
1370757,294.3637,208.1451,55.80657,46.14326
1370792,300.1365,207.1908,56.32196,46.0117
1370825,305.571,207.0992,56.79475,45.99905
1370857,309.8917,207.8218,57.16234,46.09876
1370894,312.9944,208.3226,57.42186,46.16767
1370925,315.6523,208.4762,57.6413,46.18876
1370964,317.6964,208.1399,57.80828,46.14255
1370993,319.0128,208.6683,57.915,46.21513
1371027,319.6105,209.7819,57.96325,46.36744
1371058,320.4118,209.8434,58.02773,46.37583
1371092,320.9933,210.0009,58.07437,46.3973
1371128,322.0964,210.8199,58.16253,46.50867
1371161,323.6356,211.086,58.28481,46.54476
1371194,324.7211,211.8709,58.37054,46.65092
1371230,325.8104,213.2068,58.45615,46.83064
1371258,326.9244,214.647,58.54328,47.02308
1371295,327.0864,216.1413,58.55592,47.22128
1371326,326.9232,217.1349,58.54319,47.35225
1371358,326.7253,217.5164,58.52774,47.40236
1371390,326.2615,217.6842,58.49149,47.42439
1371425,325.6549,217.5912,58.44396,47.41219
1371462,325.0776,217.3109,58.39861,47.37538
1371492,324.6777,217.3826,58.36712,47.3848
1371526,324.3302,217.3501,58.33971,47.38053
1371557,324.3038,217.5263,58.33763,47.40367
1371593,324.5475,218.1411,58.35685,47.48422
1371622,324.9,218.5985,58.38462,47.544
1371657,325.1733,218.8028,58.40613,47.57066
1371691,325.1579,219.3283,58.40492,47.6391
1371723,324.5935,219.9107,58.36048,47.71474
1371759,323.7938,220.1205,58.29733,47.74192
1371790,322.9688,220.2201,58.23194,47.75483
1371823,322.2872,220.2801,58.17773,47.7626
1371857,321.9362,220.2998,58.14975,47.76514
1371890,321.8726,220.101,58.14468,47.7394
1371921,322.1715,219.8589,58.16851,47.70802
1371953,322.5613,219.3723,58.19955,47.64481
1371985,322.9532,218.9186,58.2307,47.58576
1372017,323.1681,218.3878,58.24775,47.51649
1372051,323.272,217.8317,58.25599,47.44372
1372084,323.3669,217.0402,58.26352,47.33979
1372115,323.4915,215.4819,58.27339,47.134
1372151,323.6332,212.9594,58.28461,46.79746
1372185,323.7725,209.3333,58.29564,46.30619
1372215,323.739,205.8621,58.293,45.8275
1372248,323.6208,202.6678,58.28364,45.3796
1372285,323.4947,199.629,58.27365,44.94681
1372317,323.2975,196.8062,58.25802,44.53885
1372351,323.0167,194.0226,58.23574,44.13088
1372384,322.7851,191.8723,58.21735,43.81182
1372414,322.3525,190.3747,58.18293,43.58757
1372449,321.9003,189.0789,58.14688,43.39218
1372481,321.3836,188.3264,58.10561,43.27813
1372519,320.9801,187.8905,58.07331,43.21187
1372550,320.5215,187.3417,58.03653,43.12825
1372583,320.09,187.1611,58.00185,43.10068
1372613,319.7162,186.9093,57.97176,43.06219
1372649,319.4767,186.7903,57.95246,43.04399
1372682,319.2439,186.5023,57.93367,42.99989
1372724,319.1469,186.4566,57.92583,42.99288
1372748,319.1492,186.5348,57.92602,43.00487
1372783,319.1762,186.7325,57.9282,43.03514
1372815,319.253,187.1938,57.9344,43.10567
1372849,319.3313,187.766,57.94072,43.19292
1372879,319.3748,188.5177,57.94424,43.30716
1372914,319.2368,189.5073,57.93309,43.45692
1372949,319.0089,190.4748,57.91468,43.6026
1372981,318.8646,191.6208,57.90302,43.77427
1373013,318.6088,192.3425,57.88231,43.88188
1373045,318.2533,192.8863,57.8535,43.9627
1373078,317.9916,193.3435,57.83226,44.03049
1373117,317.8905,193.4278,57.82405,44.04296
1373146,318.0724,194.0403,57.83883,44.13349
1373177,318.1289,195.0673,57.84341,44.28466
1373211,318.4278,196.1615,57.86765,44.44486
1373242,319.1946,197.2012,57.92969,44.59628
1373275,319.9604,199.02,57.99143,44.85929
1373310,320.4962,202.1535,58.03451,45.3068
1373344,320.8452,205.8733,58.0625,45.82905
1373375,320.9101,209.44,58.0677,46.32077
1373410,320.6358,212.9948,58.04571,46.8022
1373441,320.2011,216.1698,58.01079,47.22505
1373477,319.5318,218.9026,57.9569,47.58366
1373506,318.4259,222.8254,57.8675,48.09
1373542,317.5807,226.2719,57.79887,48.52679
1373573,316.8202,229.8412,57.73689,48.97131
1373604,316.0054,234.871,57.67026,49.58457
1373646,315.6805,238.4413,57.64362,50.01072
1373676,315.6212,242.1822,57.63875,50.44927
1373709,315.4193,245.253,57.62217,50.80329
1373743,315.1819,246.9433,57.60265,50.9959
1373772,314.914,248.0849,57.58061,51.12509
1373804,314.6453,249.3818,57.55848,51.27097
1373837,314.6984,250.3058,57.56285,51.37435
1373870,314.8065,251.5538,57.57176,51.51325
1373903,314.7433,252.2623,57.56655,51.59172
1373937,315.1573,252.6031,57.60064,51.62937
1373968,315.3335,253.152,57.61512,51.68988
1374001,315.4264,254.837,57.62275,51.87463
1374036,315.1241,255.1506,57.5979,51.90885
1374071,315.3616,254.9664,57.61743,51.88876
1374114,315.2978,254.6772,57.61219,51.85718
1374137,315.3317,254.8028,57.61497,51.8709
1374174,315.1194,255.1119,57.59752,51.90463
1374205,314.7589,255.2657,57.56784,51.92139
1374237,314.5449,255.3227,57.55019,51.92761
1374270,314.0854,255.6338,57.51226,51.96147
1374304,313.683,255.4182,57.47897,51.93801
1374337,312.9544,255.6245,57.41854,51.96046
1374371,310.8234,256.2464,57.24065,52.028
1374403,309.2229,256.2016,57.10591,52.02314
1374436,308.288,256.3331,57.02675,52.0374
1374467,307.4652,256.7318,56.95679,52.08059
1374502,307.5259,257.0057,56.96197,52.1102
1374534,307.8907,257.107,56.993,52.12114
1374566,308.3652,257.1564,57.0333,52.12648
1374598,308.7535,256.8987,57.06621,52.09864
1374633,308.8451,256.0983,57.07397,52.01194
1374670,309.0536,256.0132,57.0916,52.0027
1374709,309.2975,256.2235,57.11222,52.02553
1374735,309.8341,255.9731,57.15748,51.99835
1374766,310.2875,255.8987,57.19565,51.99026
1374801,310.986,255.8842,57.25429,51.98869
1374834,311.7623,255.9421,57.31924,51.99498
1374868,312.923,255.8017,57.41594,51.97972
1374901,313.5638,255.8355,57.4691,51.98339
1374935,314.0314,255.4019,57.5078,51.93623
1374967,314.0435,255.5374,57.50879,51.95098
1375001,313.8808,255.5183,57.49534,51.94891
1375034,313.9641,256.033,57.50223,52.00485
1375065,313.8036,256.4774,57.48896,52.05305
1375099,313.8618,257.4805,57.49377,52.16145
1375150,314.151,258.1014,57.51768,52.22828
1375169,314.4607,258.5863,57.54325,52.28034
1375203,314.7697,258.8139,57.56873,52.30473
1375234,315.1529,259.2001,57.60027,52.34605
1375273,315.7304,259.554,57.64771,52.38386
1375304,316.3036,259.8355,57.69468,52.41389
1375334,317.0152,259.9002,57.75281,52.42078
1375371,317.5597,259.7421,57.79716,52.40392
1375399,318.3959,259.773,57.86506,52.40722
1375433,318.9226,259.9596,57.90771,52.4271
1375466,319.6228,260.0788,57.96424,52.4398
1375499,320.5919,259.9804,58.04218,52.42932
1375535,321.4269,259.8997,58.10908,52.42072
1375570,322.3524,259.5628,58.18292,52.3848
1375600,322.9869,259.3686,58.23338,52.36406
1375636,323.557,258.5958,58.27858,52.28135
1375667,324.1196,258.2277,58.32308,52.24185
1375695,324.4999,258.2372,58.3531,52.24287
1375733,325.1375,258.4186,58.40331,52.26234
1375767,325.7263,258.6619,58.44956,52.28844
1375807,326.0907,258.6619,58.47812,52.28844
1375829,326.3286,258.9596,58.49673,52.32033
1375863,326.2657,258.5908,58.49181,52.28082
1375897,326.3662,258.0977,58.49968,52.22788
1375939,326.1544,257.9933,58.4831,52.21666
1375969,325.9496,257.6695,58.46706,52.18181
1376005,326.0662,257.7711,58.4762,52.19275
1376034,326.3531,257.9376,58.49865,52.21066
1376066,327.1093,258.4204,58.5577,52.26254
1376098,327.9388,258.026,58.62225,52.22018
1376131,328.8683,258.7393,58.69429,52.29673
1376161,329.8101,259.4137,58.76698,52.36888
1376198,331.3205,260.1531,58.88292,52.44771
1376233,331.5725,260.7894,58.9022,52.51531
1376266,331.1139,260.5519,58.86711,52.49011
1376296,330.9024,260.5862,58.8509,52.49375
1376329,329.4431,259.7777,58.73869,52.40772
1376359,330.2942,259.7133,58.80422,52.40086
1376392,331.5714,259.3315,58.90211,52.3601
1376426,333.4929,258.9269,59.04834,52.31683
1376461,335.6526,258.86,59.21122,52.30967
1376493,337.4728,258.9953,59.34731,52.32415
1376527,340.0107,259.392,59.53524,52.36656
1376563,342.8712,260.5361,59.74458,52.48843
1376595,345.639,261.4749,59.94468,52.58793
1376626,348.0063,262.2128,60.11393,52.66581
1376661,349.7343,262.7166,60.23637,52.71883
1376692,350.4133,262.9205,60.28424,52.74025
1376732,350.4719,262.5809,60.28836,52.70456
1376765,351.1009,262.7349,60.33257,52.72075
1376796,351.7194,263.0816,60.37592,52.75716
1376826,352.1056,263.1341,60.40293,52.76266
1376859,352.5934,263.5219,60.43698,52.80332
1376891,353.0952,264.065,60.47194,52.86011
1376926,353.4293,264.3002,60.49517,52.88465
1376959,353.8462,264.271,60.52411,52.8816
1376993,354.2352,264.0632,60.55107,52.85991
1377026,354.7719,264.2546,60.5882,52.87989
1377062,355.1717,264.699,60.61579,52.92621
1377093,355.4524,264.716,60.63514,52.92798
1377125,355.6984,264.8281,60.65208,52.93965
1377159,356.1185,265.1925,60.68097,52.97753
1377194,356.182,265.3563,60.68533,52.99453
1377228,356.2467,265.3576,60.68977,52.99467
1377263,356.4179,265.4878,60.70152,53.00818
1377294,356.1683,265.5157,60.68438,53.01108
1377326,356.0976,265.438,60.67953,53.00301
1377358,355.9906,265.2467,60.67217,52.98316
1377393,355.884,264.9424,60.66485,52.95154
1377425,356.0935,264.808,60.67924,52.93756
1377466,356.1205,265.1862,60.6811,52.97688
1377492,356.2072,265.7916,60.68705,53.03966
1377527,356.7467,265.8706,60.72406,53.04784
1377563,356.6969,266.4556,60.72065,53.10832
1377594,356.8824,266.6089,60.73335,53.12415
1377624,356.6901,266.9516,60.72018,53.15947
1377656,356.4898,267.2452,60.70645,53.18969
1377692,355.8304,267.3258,60.66116,53.19798
1377725,355.1617,267.4692,60.6151,53.21271
1377757,354.9656,268.0794,60.60157,53.27531
1377793,354.5255,268.7686,60.57117,53.34579
1377824,354.5569,268.7989,60.57334,53.34888
1377855,354.7459,269.1917,60.5864,53.38894
1377890,354.929,269.3373,60.59905,53.40377
1377923,355.242,269.4205,60.62064,53.41225
1377956,355.4455,270.1487,60.63467,53.48623
1377995,355.5344,270.1875,60.64079,53.49017
1378022,355.2291,269.8424,60.61975,53.45515
1378055,355.5583,269.3666,60.64243,53.40676
1378089,355.3311,269.3977,60.62678,53.40992
1378124,355.4464,269.1447,60.63473,53.38416
1378154,355.45,268.8138,60.63497,53.3504
1378189,355.4787,269.3561,60.63695,53.40569
1378223,355.839,269.0589,60.66175,53.37541
1378254,355.8605,269.1532,60.66323,53.38502
