Time Stamp(ms),Intersection,,Angle,
,x,y,x,y
1078590,308.9327,247.9471,57.08138,51.10953
1078606,308.8358,247.771,57.07318,51.08964
1078622,308.5928,247.813,57.0526,51.09438
1078642,308.3557,247.7576,57.03249,51.08812
1078657,308.0732,247.7674,57.00852,51.08923
1078677,307.9445,247.6739,56.99758,51.07866
1078690,307.8436,247.5448,56.989,51.06406
1078707,307.6652,247.42,56.97382,51.04993
1078723,307.4967,247.2738,56.95948,51.03337
1078741,307.4272,247.2349,56.95356,51.02897
1078759,307.369,247.0768,56.9486,51.01104
1078775,307.3642,246.975,56.94819,50.9995
1078791,307.2866,246.8993,56.94158,50.9909
1078807,307.1292,246.8261,56.92815,50.98259
1078824,306.7822,246.6396,56.89853,50.96142
1078849,306.3895,246.6472,56.86495,50.96227
1078864,306.1376,246.5398,56.84338,50.95007
1078875,305.9156,246.3779,56.82434,50.93166
1078889,305.2519,246.3087,56.76732,50.92378
1078906,305.0818,246.4281,56.75268,50.93736
1078923,304.7116,246.3925,56.72078,50.93331
1078941,304.3006,246.1647,56.68529,50.90738
1078958,303.8944,245.9283,56.65015,50.88044
1078981,303.5005,245.537,56.61601,50.83576
1078994,303.106,245.2167,56.58177,50.79914
1079007,302.4517,244.6879,56.52483,50.73854
1079025,301.8629,244.161,56.47344,50.67801
1079042,301.2148,243.5037,56.41672,50.60227
1079058,300.1928,242.6377,56.32692,50.50212
1079074,298.6154,241.7232,56.18749,50.39589
1079090,297.1014,241.1709,56.05271,50.33151
1079106,295.23,240.6456,55.8848,50.2701
1079123,293.0002,239.9264,55.68281,50.18579
1079143,291.1102,239.1568,55.50996,50.09523
1079155,289.0124,238.4837,55.3163,50.01574
1079174,286.1341,237.8777,55.04749,49.94395
1079191,283.082,237.4547,54.75845,49.8937
1079206,279.8266,236.825,54.44554,49.81873
1079223,276.3549,236.57,54.10647,49.7883
1079240,273.2825,236.4668,53.80172,49.77597
1079257,269.5127,236.1702,53.42163,49.74051
1079275,265.8107,235.9998,53.04164,49.72011
1079294,262.437,236.2622,52.68941,49.75151
1079309,259.4709,236.628,52.37499,49.79522
1079321,256.2365,236.9867,52.02693,49.83801
1079337,252.7723,237.4889,51.64804,49.89778
1079354,248.7235,238.4339,51.19704,50.00985
1079372,245.4946,239.1391,50.83092,50.09314
1079388,241.6894,240.117,50.39196,50.20816
1079406,238.3755,240.7911,50.00293,50.28713
1079425,235.2023,241.4116,49.62443,50.3596
1079443,232.1528,241.7058,49.25505,50.39387
1079455,229.1357,242.4737,48.88408,50.4831
1079474,226.2708,243.2922,48.52664,50.57786
1079492,224.2388,243.8495,48.27003,50.64215
1079506,222.5276,244.532,48.0519,50.72064
1079526,220.9872,245.1903,47.85397,50.79612
1079542,219.5639,245.5839,47.66971,50.84113
1079555,218.3376,245.886,47.50992,50.87561
1079574,217.2609,246.3232,47.36882,50.92543
1079593,216.7293,246.62,47.29887,50.95918
1079605,216.4682,246.9433,47.26444,50.9959
1079624,215.9908,247.4063,47.20139,51.04838
1079643,215.7217,247.7102,47.16578,51.08277
1079657,215.6193,247.7291,47.15221,51.0849
1079672,216.2095,247.6664,47.23029,51.07782
1079692,216.6844,247.665,47.29295,51.07766
1079707,217.3219,247.4714,47.37682,51.05575
1079726,217.8364,247.3844,47.44434,51.0459
1079739,218.763,247.2864,47.56546,51.03481
1079756,220.1897,246.8518,47.75089,50.98551
1079773,221.4855,246.4478,47.91816,50.93961
1079789,222.7053,245.9845,48.07464,50.88684
1079805,224.0475,245.2997,48.24574,50.80863
1079823,225.4328,244.5649,48.42113,50.72443
1079839,226.8936,243.758,48.60478,50.6316
1079855,228.5472,242.7442,48.81107,50.51447
1079872,230.2014,241.9533,49.01575,50.42267
1079890,231.896,241.3135,49.22369,50.34815
1079907,233.5079,240.7348,49.41987,50.28055
1079923,235.5077,240.0953,49.66112,50.20561
1079940,237.3181,239.528,49.87747,50.13895
1079960,238.8047,238.809,50.05368,50.05418
1079972,240.5423,237.8572,50.25801,49.94151
1079989,242.1057,236.8658,50.44038,49.82359
1080007,243.4406,235.8688,50.59499,49.70442
1080023,245.1059,234.9984,50.78645,49.5999
1080042,246.7217,234.0251,50.97074,49.4825
1080056,248.2095,233.1628,51.13914,49.37801
1080073,249.4371,232.4653,51.27718,49.29316
1080090,250.5138,231.9671,51.39756,49.23238
1080107,251.6927,231.2288,51.52865,49.14202
1080124,252.9246,230.2573,51.66483,49.02264
1080141,254.3606,228.896,51.82256,48.85436
1080157,255.6222,227.5922,51.96021,48.69214
1080176,256.7292,226.1156,52.08031,48.50713
1080190,258.1057,224.3904,52.22875,48.28926
1080212,259.4834,223.132,52.37632,48.12916
1080227,260.9232,221.667,52.5295,47.94151
1080243,262.0797,220.2837,52.65179,47.76307
1080258,263.4769,218.3383,52.7986,47.51002
1080276,264.5578,217.0146,52.9115,47.33643
1080291,265.8282,215.8264,53.04346,47.17963
1080311,267.1624,215.0048,53.18116,47.07067
1080325,268.255,214.077,53.29329,46.94709
1080341,269.1516,213.0396,53.38485,46.80822
1080356,269.7974,211.5132,53.45057,46.60259
1080373,270.6999,210.2434,53.54207,46.43032
1080390,271.7682,209.3525,53.64986,46.30882
1080408,272.5083,208.4751,53.72422,46.18862
1080424,273.0531,207.4907,53.77878,46.05312
1080440,273.5064,206.3885,53.82407,45.90063
1080457,274.0182,205.3149,53.8751,45.75127
1080474,274.6135,204.0988,53.93429,45.58113
1080493,275.16,203.2712,53.98848,45.46475
1080511,275.5712,202.5695,54.02916,45.3657
1080523,276.0653,201.9314,54.07794,45.27533
1080540,276.6462,201.4549,54.13514,45.20764
1080556,277.4743,201.2776,54.21641,45.18242
1080574,278.4923,201.2815,54.31588,45.18297
1080591,279.2824,201.1735,54.39275,45.1676
1080608,280.222,200.9912,54.4838,45.14163
1080624,281.1587,200.6608,54.57416,45.0945
1080641,282.1445,200.2989,54.66883,45.04279
1080658,283.2725,200.16,54.77661,45.02291
1080675,284.6873,199.9784,54.91099,44.9969
1080691,286.0833,199.9157,55.04272,44.98793
1080708,287.9948,200.0348,55.22169,45.00499
1080725,289.7999,200.4285,55.38923,45.06132
1080742,291.6285,201.0495,55.55752,45.14994
1080757,293.8078,201.8741,55.75621,45.26719
1080775,296.031,202.5004,55.95684,45.35592
1080791,298.5195,202.9846,56.17899,45.42435
1080807,302.31,203.8807,56.51247,45.55051
1080826,305.3119,204.5696,56.77248,45.64713
1080844,308.4344,205.733,57.03917,45.80954
1080862,311.2767,206.7013,57.27864,45.94399
1080879,313.8082,207.8097,57.48933,46.0971
1080893,316.5995,209.164,57.71887,46.28304
1080909,319.2489,210.3316,57.93407,46.44232
1080924,322.2774,211.296,58.17695,46.5732
1080941,325.5858,212.0266,58.43853,46.67193
1080958,328.5,212.8455,58.66578,46.78215
1080974,331.4607,213.7559,58.89365,46.90418
1080991,334.8712,214.5486,59.15247,47.00997
1081009,338.417,215.4324,59.41747,47.12744
1081025,342.7011,216.7378,59.73221,47.29998
1081042,346.5479,218.2846,60.00986,47.50299
1081059,349.6318,219.655,60.22913,47.68155
1081074,353.3518,221.1541,60.48979,47.87548
1081093,356.205,222.2783,60.6869,48.01998
1081110,359.3159,223.4129,60.89911,48.16498
1081126,362.1241,224.4072,61.08827,48.29139
1081143,364.8039,225.5009,61.26669,48.42972
1081158,367.1896,226.8918,61.42385,48.60455
1081176,369.3873,228.3956,61.56724,48.79222
1081192,371.4067,229.7018,61.69783,48.9541
1081209,373.5309,230.983,61.83403,49.11187
1081225,375.9115,232.524,61.98523,49.30031
1081245,377.4754,233.8436,62.08375,49.46054
1081262,378.9343,234.909,62.17509,49.58914
1081275,380.5976,235.8552,62.27855,49.70279
1081292,382.5596,236.7965,62.39969,49.81533
1081311,384.2334,237.7937,62.50226,49.93398
1081326,385.8388,238.4699,62.59998,50.0141
1081342,387.4157,239.2013,62.69535,50.10048
1081359,388.7407,240.2463,62.77501,50.22334
1081376,389.6818,241.4153,62.83132,50.36002
1081393,390.6681,242.1863,62.89011,50.44975
1081409,391.8166,242.9279,62.95828,50.53573
1081426,393.0132,244.151,63.02897,50.67686
1081443,394.2364,245.5398,63.10087,50.83609
1081459,395.6196,247.3065,63.18176,51.03708
1081475,396.5959,249.4221,63.23857,51.27549
1081492,397.513,251.1567,63.29174,51.46914
1081515,398.919,252.5697,63.37288,51.62568
1081532,399.8103,253.0753,63.42408,51.68144
1081546,400.6227,253.2852,63.47058,51.70454
1081561,401.3598,253.583,63.51265,51.73728
1081575,401.7266,254.0863,63.53353,51.79251
1081593,401.576,254.6608,63.52496,51.85539
1081610,401.6519,255.1486,63.52929,51.90863
1081627,401.8486,255.3554,63.54047,51.93117
1081644,401.9256,255.4959,63.54485,51.94647
1081661,401.7289,255.7458,63.53366,51.97364
1081677,401.0714,255.8831,63.49621,51.98857
1081694,400.7344,255.6922,63.47697,51.96782
1081711,400.6321,255.5609,63.47112,51.95354
1081726,400.9083,255.6817,63.4869,51.96667
1081743,401.0224,256.1007,63.49341,52.0122
1081759,400.9908,256.5397,63.49161,52.05979
1081776,400.7704,256.8357,63.47902,52.09183
1081793,400.5968,256.8808,63.4691,52.0967
1081810,400.7624,256.9428,63.47857,52.1034
1081826,400.8506,257.2633,63.4836,52.13802
1081843,400.8349,257.5729,63.4827,52.17141
1081859,400.5087,257.8946,63.46407,52.20604
1081875,400.1378,258.1807,63.44284,52.2368
1081893,399.7014,258.2388,63.41783,52.24305
1081912,399.1284,258.0673,63.38492,52.22461
1081927,398.8048,258.2245,63.36631,52.24151
1081945,398.4039,258.5086,63.34321,52.272
1081962,397.8581,258.7665,63.3117,52.29966
1081978,397.2112,259.0385,63.27427,52.32877
1081994,396.5618,258.9523,63.23659,52.31955
1082011,396.1295,258.5266,63.21146,52.27394
1082028,395.6477,258.5612,63.1834,52.27764
1082044,395.0231,258.6239,63.14693,52.28437
1082062,394.393,258.6458,63.11005,52.28672
1082077,393.6672,258.6659,63.06746,52.28887
1082093,392.9922,258.4356,63.02773,52.26417
1082112,392.3616,258.213,62.99052,52.24026
1082128,391.6137,257.6731,62.94627,52.1822
1082144,390.922,257.5714,62.90522,52.17124
1082161,390.2492,257.5641,62.86517,52.17046
1082179,389.4662,257.5922,62.81844,52.17348
1082194,388.636,257.7172,62.76872,52.18694
1082211,387.8123,257.64,62.71924,52.17864
1082228,386.9291,257.1856,62.66599,52.12963
1082244,386.0034,256.9384,62.60996,52.10293
1082260,385.2457,256.5161,62.56395,52.05724
1082277,384.9022,256.0211,62.54305,52.00356
1082293,384.7741,255.6196,62.53524,51.95992
1082312,384.4832,255.5333,62.5175,51.95053
1082329,383.8783,255.1504,62.48056,51.90882
1082349,383.3283,254.9469,62.44688,51.88663
1082362,382.7496,254.4909,62.41136,51.8368
1082382,382.1,253.9877,62.3714,51.7817
1082394,381.163,253.6646,62.31356,51.74625
1082411,379.9982,253.4937,62.24135,51.72747
1082431,378.2292,253.1475,62.13101,51.68938
1082447,376.3471,252.709,62.01274,51.64106
1082463,373.9306,251.8702,61.85952,51.54832
1082482,371.8695,251.253,61.72761,51.47984
1082494,369.8579,250.6358,61.59777,51.41116
1082526,366.8925,249.8928,61.40437,51.3282
1082534,365.5319,249.6104,61.31482,51.29659
1082545,363.152,249.381,61.15695,51.27089
1082561,360.3378,248.8722,60.9682,51.21376
1082578,357.7875,248.1514,60.7952,51.13259
1082599,355.5896,247.6918,60.64459,51.08068
1082611,353.2588,247.2683,60.48332,51.03275
1082628,351.1528,246.7845,60.33621,50.97788
1082649,349.0018,246.0953,60.18458,50.89948
1082666,347.5812,245.3082,60.08366,50.80961
1082678,345.858,244.3504,59.96041,50.69978
1082694,343.6393,243.2253,59.80035,50.57013
1082715,341.5152,242.1687,59.64568,50.4477
1082731,339.2755,240.7235,59.48101,50.27922
1082745,337.4294,239.6055,59.34407,50.14807
1082762,335.6484,238.6057,59.21091,50.03017
1082778,333.6212,237.5312,59.05806,49.9028
1082795,331.4718,236.5923,58.8945,49.79096
1082813,328.4808,234.7742,58.66429,49.57291
1082835,327.1177,233.9214,58.55836,49.46995
1082849,325.3721,232.7614,58.42175,49.32921
1082862,323.4209,231.2975,58.2678,49.15045
1082878,321.3453,229.7958,58.10255,48.96571
1082895,319.1678,228.7292,57.92753,48.83367
1082919,317.0372,228.0415,57.7546,48.74816
1082932,315.4417,227.3342,57.62401,48.65991
1082946,313.7292,226.132,57.48279,48.50919
1082963,312.3617,225.4625,57.36924,48.42488
1082978,310.9006,224.884,57.24713,48.35179
1082994,309.3829,223.9847,57.11943,48.23776
1083011,308.163,222.9789,57.01614,48.10962
1083028,307.068,222.2089,56.92294,48.01108
1083046,306.5555,221.8626,56.87915,47.96664
1083062,305.9303,221.5269,56.8256,47.92349
1083078,305.2948,221.1286,56.77101,47.87219
1083095,304.6963,220.9046,56.71946,47.84332
1083113,304.0443,220.636,56.66312,47.80862
1083129,303.5217,220.3361,56.61785,47.76984
1083145,303.048,220.1265,56.57673,47.7427
1083165,302.5503,219.8444,56.53342,47.70613
1083180,302.0402,219.7977,56.48893,47.70007
1083197,301.6217,220.0168,56.45235,47.72849
1083212,301.2335,220.6046,56.41835,47.80457
1083228,300.9556,221.0642,56.39398,47.8639
1083246,300.6994,222.0979,56.37148,47.99685
1083262,300.587,223.8637,56.36161,48.22238
1083279,300.4906,226.1478,56.35313,48.51118
1083296,299.966,229.1082,56.30693,48.88067
1083317,299.3954,232.3423,56.25657,49.27816
1083331,299.0251,236.0974,56.2238,49.73179
1083349,298.682,240.069,56.1934,50.20252
1083364,298.1381,244.316,56.1451,50.69583
1083379,297.4136,248.6532,56.08058,51.18913
1083396,296.4655,253.2861,55.99582,51.70464
1083414,295.2121,257.7775,55.88318,52.19344
1083431,294.4678,261.3353,55.81599,52.57316
1083446,293.843,265.2303,55.75941,52.98145
1083463,293.0646,269.587,55.68867,53.42919
1083480,292.2155,273.4776,55.61123,53.8212
1083495,291.5724,277.8034,55.55238,54.24862
1083513,291.0626,283.9207,55.50558,54.83828
1083534,290.9421,288.0415,55.49451,55.22603
1083547,290.8891,292.3926,55.48964,55.62741
1083564,290.8928,296.0763,55.48998,55.96091
1083580,290.9399,299.3748,55.49431,56.25474
1083596,290.9836,303.4442,55.49833,56.61113
1083614,291.1611,307.527,55.51463,56.96206
1083630,291.3907,312.0807,55.53571,57.34582
1083647,291.683,315.7928,55.56251,57.65283
1083663,291.9709,319.6034,55.58886,57.96268
1083681,291.8717,322.959,55.57979,58.23116
1083697,291.6858,325.9034,55.56276,58.46344
1083712,291.4265,328.8199,55.53899,58.69054
1083732,291.2112,331.9577,55.51924,58.93161
1083751,291.0383,334.7533,55.50336,59.14359
1083763,291.1328,336.9849,55.51204,59.31094
1083784,291.236,339.3405,55.52151,59.48582
1083797,290.888,341.2928,55.48954,59.62939
1083814,290.3896,343.0937,55.44365,59.76076
1083831,290.1518,344.9141,55.42173,59.89251
1083847,289.9165,346.2738,55.4,59.99023
1083866,289.7959,347.3768,55.38886,60.06908
1083884,289.8905,348.5213,55.39759,60.15051
1083902,289.6533,349.8356,55.37568,60.24352
1083927,289.4746,350.8066,55.35914,60.3119
1083947,289.4061,351.0007,55.3528,60.32553
1083960,289.4772,351.3838,55.35938,60.35241
1083970,289.6107,351.636,55.37173,60.37008
1083982,289.795,351.9774,55.38877,60.39397
1084001,289.8357,352.1658,55.39253,60.40714
1084017,289.8518,352.1562,55.39402,60.40646
1084032,289.8736,351.6396,55.39603,60.37033
1084052,289.7403,350.9686,55.38372,60.32328
1084067,289.5952,350.7957,55.3703,60.31113
1084084,289.2833,350.9075,55.34142,60.31899
1084099,289.0276,350.9639,55.31772,60.32295
1084115,288.842,350.8589,55.3005,60.31557
1084135,288.6993,350.5068,55.28725,60.29082
1084152,288.2986,349.6244,55.24998,60.22861
1084166,287.862,348.8714,55.2093,60.17534
1084189,287.3443,348.2869,55.16096,60.13387
1084202,286.8773,347.6317,55.11724,60.08725
1084215,286.2439,346.7849,55.05782,60.02681
1084231,285.2221,345.0531,54.96156,59.90252
1084249,284.2375,343.2232,54.86836,59.77017
1084271,283.5147,342.141,54.79967,59.69139
1084283,282.553,340.3562,54.70793,59.56067
1084298,281.5471,338.4625,54.61152,59.42084
1084319,280.7515,336.2455,54.53492,59.25567
1084336,279.9039,334.2623,54.45302,59.10654
1084349,278.9737,331.8453,54.36275,58.92303
1084369,278.0819,329.7117,54.27584,58.7594
1084381,276.925,327.1234,54.16254,58.5588
1084398,275.8849,324.8663,54.06014,58.38198
1084414,274.7254,322.5741,53.9454,58.20057
1084431,273.3655,320.3995,53.81001,58.02673
1084448,271.856,317.8966,53.65869,57.82455
1084465,270.1393,315.2255,53.48528,57.60624
1084486,268.317,313.3842,53.29963,57.45421
1084498,267.2509,311.2992,53.19028,57.28052
1084516,266.0714,309.3218,53.06862,57.11427
1084536,263.989,307.0218,52.85216,56.91899
1084553,262.3111,305.3498,52.67617,56.77574
1084569,260.8645,303.9149,52.52328,56.65193
1084582,259.5423,302.4021,52.38261,56.5205
1084598,258.1301,300.563,52.23137,56.35949
1084615,256.9166,298.6658,52.10057,56.19196
1084632,255.5882,296.9779,51.95651,56.04167
1084648,254.1062,295.3965,51.79469,55.8998
1084666,252.9116,294.1004,51.66339,55.78274
1084682,252.0273,292.5837,51.56572,55.64486
1084699,251.3931,291.4879,51.49541,55.54462
1084715,250.6152,290.4141,51.40887,55.44591
1084731,249.8361,289.615,51.32186,55.37213
1084749,249.1297,288.5398,51.24269,55.27242
1084769,248.7392,287.0544,51.1988,55.13384
1084784,248.2639,286.3033,51.14528,55.0634
1084799,247.7231,285.7343,51.08422,55.00986
1084815,247.2118,285.1913,51.02635,54.95865
1084832,246.9042,284.5713,50.99146,54.90001
1084849,246.7368,283.6454,50.97245,54.81211
1084867,246.41,282.9232,50.9353,54.7433
1084886,245.9883,282.162,50.88728,54.67051
1084899,245.6108,281.1878,50.8442,54.57696
1084919,245.3508,280.2119,50.81448,54.48283
1084936,245.0493,279.3247,50.77997,54.39686
1084951,244.5092,278.7128,50.71803,54.33736
1084967,243.8787,277.9523,50.64552,54.26318
1084984,243.1528,277.1062,50.56174,54.18032
1084999,242.591,276.4911,50.4967,54.11988
1085019,242.1533,275.7855,50.44591,54.05033
1085036,241.8483,275.1801,50.41045,53.99046
1085052,241.5296,274.3768,50.37335,53.91077
1085067,241.3467,273.5326,50.35202,53.82669
1085084,241.3635,272.649,50.35398,53.73832
1085100,241.3887,272.1048,50.35692,53.68371
1085120,241.5059,271.4381,50.37058,53.61661
1085134,241.5021,270.8434,50.37014,53.55658
1085151,241.3404,270.0724,50.35128,53.47849
1085166,241.1122,269.1449,50.32465,53.38417
1085187,240.928,268.4557,50.30314,53.31382
1085200,240.7261,267.7122,50.27953,53.23766
1085216,240.5086,266.2886,50.25407,53.09108
1085233,240.2636,265.1847,50.22536,52.97672
1085250,239.9795,264.4217,50.19202,52.89732
1085270,239.9307,264.0081,50.18629,52.85416
1085284,240.0977,263.4938,50.20589,52.80037
1085301,240.4311,263.0175,50.24499,52.75044
1085317,240.5285,262.598,50.2564,52.70636
1085333,240.5133,262.142,50.25462,52.65835
1085351,240.6328,261.4576,50.2686,52.5861
1085371,240.9916,260.6104,50.31057,52.49632
1085388,241.3449,260.1396,50.35181,52.44627
1085401,241.4966,259.7054,50.36949,52.40001
1085421,241.62,259.4776,50.38387,52.3757
1085438,241.8431,259.2701,50.40985,52.35353
1085456,242.1469,259.1164,50.44517,52.3371
1085472,242.4111,258.6461,50.47584,52.28675
1085487,242.5963,258.3906,50.49733,52.25935
1085517,242.7664,258.247,50.51703,52.24392
1085535,242.9093,258.1604,50.53358,52.23462
1085549,242.9563,257.9984,50.53902,52.21721
1085564,242.8727,257.5357,50.52934,52.1674
1085573,242.8377,257.2228,50.52529,52.13365
1085584,242.7597,256.7773,50.51626,52.08551
1085604,242.6846,256.6964,50.50755,52.07675
1085622,242.7598,256.5346,50.51626,52.05924
1085638,243.0161,256.3082,50.54593,52.03471
1085653,243.3545,256.2721,50.58504,52.03079
1085670,243.6193,256.1504,50.61561,52.01759
1085687,243.8065,255.8441,50.63719,51.98433
1085702,244.329,255.2519,50.69733,51.91989
1085719,244.8978,254.8956,50.76262,51.88103
1085734,245.5529,254.1531,50.83759,51.79982
1085754,245.983,253.6763,50.88668,51.74753
1085769,246.4055,253.0397,50.93479,51.67751
1085785,247.214,251.5858,51.0266,51.5168
1085801,248.3442,249.4747,51.15432,51.28139
1085825,249.0473,247.0934,51.23343,51.01293
1085836,250.2317,243.6337,51.36609,50.61727
1085852,251.6491,240.7995,51.52382,50.28811
1085870,253.032,238.6294,51.67667,50.03297
1085885,254.6082,236.5975,51.84963,49.79158
1085905,255.7412,234.934,51.97315,49.59215
1085920,256.8679,233.2967,52.0953,49.39426
1085937,257.6508,231.9259,52.17979,49.22734
1085951,258.5715,230.22,52.27875,49.01804
1085968,259.439,228.5667,52.37158,48.81349
1085987,260.1922,226.9316,52.45187,48.60954
1086003,260.8279,225.1903,52.5194,48.39051
1086019,261.6731,223.8683,52.60887,48.22295
1086036,262.4543,222.7414,52.69124,48.07926
1086053,262.9237,221.5872,52.74059,47.93124
1086072,263.3258,220.5536,52.78277,47.79798
1086086,263.8216,219.447,52.83467,47.65453
1086102,264.3925,218.4249,52.89428,47.52133
1086123,264.8553,217.1692,52.94247,47.35677
1086135,265.1031,216.0155,52.96824,47.20465
1086151,265.4024,214.7408,52.99932,47.03556
1086168,265.783,213.4736,53.03877,46.8664
1086185,266.0034,212.3837,53.06159,46.72005
1086201,265.7103,210.6603,53.03125,46.48701
1086221,265.6431,209.6402,53.02428,46.34811
