Time Stamp(ms),Intersection,,Angle,
,x,y,x,y
939955.5,327.0736,248.4117,58.55491,51.16193
939975.1,327.266,248.4737,58.56991,51.16892
939991.9,327.471,248.4206,58.58588,51.16294
940008.6,327.6812,248.398,58.60223,51.16039
940024.1,327.9065,248.4205,58.61974,51.16292
940038.8,328.0855,248.5047,58.63363,51.17241
940054.3,328.2755,248.5536,58.64837,51.17792
940075.6,328.3841,248.5231,58.6568,51.17448
940092.9,328.531,248.5612,58.66817,51.17877
940109.9,328.7085,248.562,58.68192,51.17886
940121.5,328.9716,248.493,58.70227,51.17109
940139.3,329.1709,248.5445,58.71767,51.17689
940155.2,329.3509,248.5945,58.73157,51.18252
940171.6,329.5437,248.5834,58.74644,51.18127
940190.8,329.8086,248.6174,58.76686,51.1851
940208.3,330.0876,248.6012,58.78834,51.18327
940222.6,330.3049,248.6084,58.80505,51.18409
940239.2,330.4238,248.6159,58.81418,51.18493
940258.6,330.5118,248.6545,58.82094,51.18927
940274.9,330.6787,248.6479,58.83375,51.18853
940289.9,330.8007,248.5933,58.84311,51.18239
940309.3,330.8978,248.5994,58.85056,51.18307
940325.5,331.0127,248.5738,58.85936,51.18019
940342.7,331.2102,248.7618,58.87449,51.20134
940358.9,331.3304,248.9688,58.88368,51.22462
940372.1,331.4273,249.2725,58.8911,51.25872
940393.4,331.4037,249.8372,58.88929,51.32199
940409.9,331.4221,250.5103,58.89069,51.39717
940422.9,331.3604,251.6311,58.88597,51.52182
940443.7,330.9054,253.0637,58.85114,51.68015
940455.8,330.2698,254.6203,58.80235,51.85095
940472.1,329.1726,256.3852,58.7178,52.04305
940490.3,327.4682,258.8376,58.58566,52.30726
940506.4,325.7033,261.3831,58.44775,52.57822
940526.3,323.3212,264.907,58.2599,52.94786
940545.7,321.1479,268.1212,58.08675,53.27959
940561.2,318.6679,271.8129,57.8871,53.65435
940576.6,316.491,275.1655,57.71,53.98902
940591.1,313.8272,278.7203,57.49091,54.3381
940610.2,310.9882,282.0505,57.25447,54.65982
940627.4,308.4528,285.0891,57.04073,54.94899
940644.5,306.2812,288.1279,56.85567,55.23409
940659.4,304.5395,291.2678,56.70592,55.52443
940675.1,303.0612,294.9549,56.57788,55.85999
940695.9,302.3107,298.8398,56.51253,56.20739
940711.7,301.9306,302.0218,56.47935,56.48732
940727.1,301.8924,305.4257,56.47602,56.78227
940743.1,302.1519,309.2267,56.49868,57.10623
940766.9,302.5152,312.1629,56.53036,57.35268
940777.8,303.2964,314.8279,56.5983,57.57352
940791.9,305.1274,318.6041,56.7566,57.88193
940809.6,307.034,321.7039,56.92003,58.13121
940828.3,308.6812,325.0214,57.06009,58.39418
940844.8,310.063,329.1617,57.17676,58.71696
940869.9,311.5433,331.9082,57.30095,58.92783
940880.6,313.4604,334.3011,57.46053,59.10947
940892.5,315.4201,337.1019,57.62223,59.31966
940907.6,317.8065,339.476,57.81723,59.49582
940926.5,319.1097,341.5082,57.92283,59.64516
940945.2,320.2848,343.4703,58.01752,59.7881
940960.1,321.7478,345.1155,58.13472,59.90701
940976.8,323.1223,346.9212,58.24413,60.03656
940992.4,324.1918,349.281,58.32878,60.20434
941010.4,325.1436,350.6498,58.40379,60.30088
941027.9,326.3431,351.3055,58.49787,60.34692
941046.3,328.1741,351.8416,58.64051,60.38447
941059.8,329.6469,352.9125,58.75441,60.45922
941074.6,330.8243,354.2316,58.84492,60.55083
941095.1,332.0536,355.2298,58.93893,60.6198
941110.7,333.7656,356.1517,59.06899,60.68325
941128,335.6119,357.0302,59.20817,60.74347
941149.9,337.9029,358.2345,59.3793,60.82566
941164.1,339.6988,359.33,59.51226,60.90007
941177,341.2603,360.2552,59.62701,60.96263
941191.7,342.96,361.3254,59.75105,61.0347
941209.3,344.4698,362.2333,59.86044,61.09558
941225.1,345.6578,362.9583,59.94603,61.14403
941243.9,346.7004,363.4765,60.02077,61.17857
941261.8,348.0292,364.0144,60.11555,61.21434
941275.6,349.2754,364.7589,60.20394,61.26372
941292.1,350.3101,365.5723,60.27697,61.31749
941308.9,351.2369,366.1632,60.34211,61.35643
941325.6,352.3372,366.8951,60.41911,61.40454
941345.7,353.3196,367.646,60.48755,61.45374
941359.7,354.2639,368.2414,60.55306,61.49264
941376.4,354.9964,368.6957,60.6037,61.52226
941392.4,355.9515,369.0787,60.66949,61.54718
941410.4,356.9824,369.6748,60.7402,61.5859
941427.8,357.9023,370.3235,60.80303,61.62792
941444,358.773,370.8234,60.86228,61.66022
941459.6,359.5793,371.0654,60.91695,61.67584
941475.1,360.5229,371.3521,60.98069,61.69432
941493.4,361.4511,371.6947,61.04314,61.71637
941512.1,362.0321,372.0125,61.08211,61.7368
941526.4,362.8016,372.5645,61.13357,61.77222
941542.6,363.6442,373.4491,61.18973,61.8288
941560.9,364.5517,373.8364,61.24999,61.85351
941578.4,364.9674,373.7438,61.27752,61.84761
941591.8,365.2952,374.0027,61.29919,61.86411
941609.3,365.933,374.0944,61.34127,61.86995
941626,366.96,374.0647,61.40879,61.86806
941642.9,367.8941,373.8424,61.46996,61.8539
941659.6,368.666,373.8351,61.52033,61.85343
941675.8,369.47,373.8263,61.57261,61.85287
941695.7,370.2254,373.6855,61.62157,61.84389
941711.1,371.3454,373.334,61.69389,61.82146
941728,372.4636,373.3227,61.76575,61.82073
941747.8,373.5102,373.4295,61.83271,61.82755
941763.7,374.4549,373.4349,61.89289,61.8279
941778.7,375.554,373.4705,61.96262,61.83017
941796.1,377.0022,373.8225,62.05401,61.85263
941811.8,378.3701,374.4086,62.13984,61.88995
941827.3,379.6584,374.8092,62.22022,61.91541
941847.3,380.8027,374.6554,62.29126,61.90564
941863.8,382.0034,374.603,62.36544,61.90231
941880,383.3202,374.7589,62.44638,61.91221
941896,384.5424,374.91,62.52112,61.9218
941911.3,385.871,374.9496,62.60194,61.92432
941930.2,387.2181,374.5765,62.68343,61.90062
941946.6,388.4092,374.1535,62.75512,61.87371
941964.1,389.7044,373.441,62.83267,61.82829
941981.1,391.0325,372.8359,62.91178,61.7896
941999.3,392.3049,372.5263,62.98717,61.76977
942012.4,394.2818,372.4836,63.10353,61.76703
942032.1,396.3088,372.6942,63.22189,61.78053
942048.1,397.5466,372.6642,63.29369,61.77861
942062.9,398.8276,372.726,63.36762,61.78256
942080.3,400.1622,372.4347,63.44424,61.76389
942096.4,401.8124,372.308,63.53842,61.75577
942116.4,403.6692,372.614,63.64365,61.77539
942129.7,404.8577,372.7155,63.71059,61.78189
942146.8,405.6978,372.2949,63.75772,61.75492
942164,406.7776,371.7113,63.81808,61.71744
942180.3,407.9922,371.4143,63.88565,61.69833
942196,409.3661,371.2582,63.96171,61.68827
942214,410.7083,370.3595,64.0356,61.63025
942231.1,411.6107,370.0739,64.08507,61.61176
942250.3,412.0584,369.6839,64.10954,61.58649
942265,412.6973,369.6219,64.1444,61.58247
942279.9,413.5891,369.8259,64.1929,61.5957
942295,414.3456,370.2503,64.23391,61.62319
942314,414.6544,370.4091,64.25062,61.63346
942330.8,414.7991,370.2403,64.25845,61.62254
942349.6,415.1344,370.243,64.27655,61.62271
942364.4,415.3273,370.3843,64.28696,61.63186
942379.9,415.2857,370.3608,64.28471,61.63034
942397.3,415.3661,370.5279,64.28905,61.64114
942413.8,415.2928,370.8719,64.2851,61.66336
942429.9,414.9223,370.8561,64.2651,61.66233
942446.8,414.6396,370.6841,64.24982,61.65123
942463.2,414.3343,370.3353,64.2333,61.62868
942478.4,414.0949,370.2438,64.22034,61.62276
942494.9,413.7777,370.4701,64.20314,61.6374
942512.8,413.536,370.7151,64.19002,61.65323
942531.3,413.3317,370.9285,64.17892,61.66701
942546.3,413.2898,370.7562,64.17664,61.65589
942563.8,413.3915,370.2087,64.18217,61.62049
942578.7,413.5665,369.8727,64.19167,61.59873
942595.4,413.6918,369.7753,64.19848,61.59242
942615.3,413.864,369.9972,64.20782,61.6068
942631.8,414.0897,370.3792,64.22005,61.63152
942647.7,414.1735,370.5773,64.22459,61.64433
942664.4,414.1648,370.5662,64.22412,61.64361
942680.7,414.3125,370.4014,64.23212,61.63296
942697.6,414.4368,370.3169,64.23885,61.62749
942713.7,414.2805,369.8875,64.23039,61.59969
942732.5,413.9364,369.6255,64.21175,61.58271
942748.2,413.6876,369.5016,64.19825,61.57467
942765.3,413.5289,369.5433,64.18964,61.57737
942782.6,413.412,369.6088,64.18328,61.58162
942798.8,413.2128,369.6709,64.17245,61.58564
942814.6,412.9099,369.5257,64.15598,61.57623
942833.8,412.7035,369.5322,64.14474,61.57664
942849.3,412.5028,369.3418,64.1338,61.56429
942865,412.3948,369.1953,64.12791,61.55477
942881.1,412.305,369.208,64.12301,61.55559
942897.2,412.2988,369.2719,64.12267,61.55974
942913.3,412.3802,369.3398,64.12711,61.56416
942931.5,412.5576,369.0726,64.13679,61.54679
942948.2,412.5823,368.9973,64.13813,61.54189
942964.9,412.6553,368.9766,64.14211,61.54054
942983.3,412.8547,369.1654,64.15297,61.55282
943000,413.0716,369.4052,64.16477,61.56841
943013.6,413.3583,369.5999,64.18037,61.58104
943032.4,413.5135,369.3753,64.1888,61.56646
943050.6,413.6243,369.3038,64.19482,61.56182
943065,413.7691,369.304,64.20267,61.56183
943081.7,414.1069,369.4525,64.22099,61.57147
943100.6,414.3222,369.5221,64.23265,61.57599
943115.5,414.5164,369.5453,64.24316,61.5775
943130.6,414.8034,369.4467,64.25867,61.5711
943150.7,415.0413,369.6512,64.27152,61.58437
943167.1,415.226,369.7009,64.28149,61.5876
943182.5,415.4304,369.8007,64.29252,61.59406
943199,415.6723,369.9324,64.30555,61.6026
943214.1,415.8753,370.0826,64.31647,61.61233
943230.6,416.0452,370.2654,64.32561,61.62416
943248.4,416.0042,370.4805,64.32341,61.63807
943264.3,416.0252,370.4984,64.32454,61.63923
943281.3,416.0115,370.4252,64.32381,61.6345
943300.2,416.074,370.4651,64.32716,61.63708
943317,416.1699,370.6998,64.33232,61.65225
943332.6,416.1738,370.9323,64.33253,61.66726
943348.1,416.2591,371.1099,64.33711,61.67871
943366.1,416.2854,370.8582,64.33852,61.66247
943382.9,416.338,370.6597,64.34135,61.64965
943400.8,416.3784,370.6539,64.34352,61.64928
943416,416.5603,370.8185,64.35329,61.65991
943431,416.658,370.9065,64.35853,61.66559
943448.3,416.6858,371.092,64.36002,61.67756
943464.7,416.6986,371.1932,64.36071,61.68408
943481.5,416.6532,371.2283,64.35827,61.68634
943498.1,416.6469,371.3316,64.35793,61.693
943514.1,416.723,371.5162,64.36201,61.70489
943534.1,416.8152,371.7032,64.36696,61.71692
943548,416.8715,371.8629,64.36998,61.72718
943569.5,416.8574,371.9382,64.36922,61.73203
943585.3,416.9482,371.9645,64.37409,61.73372
943601.9,417.0283,372.1525,64.37838,61.74579
943618.4,417.2129,372.2344,64.38826,61.75105
943631.1,417.4063,372.3405,64.39861,61.75785
943647.3,417.4576,372.3762,64.40135,61.76014
943665.3,417.41,372.3468,64.39881,61.75826
943681.4,417.4553,372.3297,64.40124,61.75716
943699,417.409,372.3934,64.39876,61.76125
943713.9,417.1463,372.2673,64.3847,61.75315
943734.3,416.9086,372.1288,64.37196,61.74427
943751.6,416.7758,372.0524,64.36485,61.73936
943767.8,416.6375,371.7442,64.35743,61.71955
943786.2,416.5573,371.5436,64.35313,61.70665
943802.1,416.5184,371.2672,64.35104,61.68885
943818.3,416.5078,371.0535,64.35047,61.67507
943835.6,416.4937,370.8352,64.34972,61.66099
943852.1,416.5984,370.7145,64.35533,61.65319
943870.7,416.9063,370.525,64.37184,61.64095
943885.2,417.3134,370.2964,64.39365,61.62617
943903.3,417.8314,370.0521,64.42133,61.61035
943922.2,418.0798,369.8283,64.43459,61.59586
943935.8,418.2742,369.5994,64.44496,61.58101
943952.4,418.503,369.4086,64.45715,61.56862
943969.3,418.723,369.2432,64.46886,61.55788
943986.4,418.9534,369.1926,64.48112,61.55459
944006.2,419.1,369.1331,64.48891,61.55072
944019.7,419.1984,368.919,64.49414,61.5368
944036.8,419.2546,368.7064,64.49713,61.52296
944053.8,419.2282,368.573,64.49572,61.51427
944069.4,419.1917,368.6342,64.49378,61.51825
944085.9,419.123,368.6223,64.49014,61.51748
944102.9,418.9753,368.4242,64.48228,61.50457
944118.4,418.7248,368.1044,64.46896,61.4837
944134.9,418.5327,368.1125,64.45873,61.48423
944153.6,418.1374,368.2447,64.43767,61.49286
944169.5,417.8088,368.2683,64.42013,61.4944
944186.9,417.4629,368.2951,64.40164,61.49615
944203.2,417.0279,368.27,64.37836,61.49451
944219.4,416.4311,368.2777,64.34635,61.49501
944234,415.6553,368.1628,64.30463,61.48751
944250.3,414.7758,367.6844,64.25719,61.45625
944267.7,414.131,367.3599,64.2223,61.43501
944289.2,413.6549,367.5247,64.19647,61.4458
944304.7,413.0069,367.5307,64.16125,61.44619
944320.3,412.3489,367.1842,64.1254,61.4235
944336.4,411.9815,366.536,64.10534,61.38095
944352.4,411.5833,366.1164,64.08357,61.35335
944370.6,411.5126,366.1077,64.0797,61.35278
944386.8,411.3183,366.1126,64.06905,61.3531
944403.4,410.9725,365.9349,64.0501,61.3414
944420.4,410.7982,365.6874,64.04053,61.32508
944436.2,410.8129,365.4346,64.04134,61.3084
944451.9,410.8895,365.4327,64.04555,61.30827
944469.6,410.9913,365.5024,64.05114,61.31287
944485.1,411.1541,365.5956,64.06006,61.31902
944504,411.2709,365.4974,64.06646,61.31254
944519.3,411.6574,365.4265,64.08762,61.30787
944533.4,412.0152,365.5597,64.10719,61.31665
944552,412.3658,365.7805,64.12633,61.33122
944568.8,412.6144,365.9005,64.13988,61.33913
944586.4,412.7379,365.8944,64.14661,61.33873
944602.3,412.6558,365.8385,64.14214,61.33504
944617.9,412.5329,365.8481,64.13544,61.33567
944633.8,412.4041,366.1326,64.12841,61.35442
944653.2,411.7237,366.34,64.09125,61.36807
944671,410.8841,366.5497,64.04525,61.38186
944687.6,409.5306,366.6704,63.97078,61.38979
944702,406.062,366.4775,63.77811,61.37711
944718.3,400.9491,365.973,63.48923,61.34391
944736.6,392.8046,365.7225,63.01667,61.3274
944753.9,385.204,365.6135,62.56142,61.3202
944770.3,376.6078,364.7015,62.02918,61.25992
944785.7,369.8181,364.1701,61.59519,61.22467
944802.6,363.3798,363.8383,61.17212,61.20263
944819.8,357.0161,364.2866,60.7425,61.23241
944835.4,350.7765,365.0151,60.30978,61.28067
944854.8,345.2501,365.7781,59.91671,61.33106
944870.3,339.8177,366.6896,59.52103,61.39104
944886.9,334.9658,367.3381,59.1596,61.43358
944904.8,330.2211,367.7656,58.7986,61.46156
944921.4,325.0916,368.2693,58.3997,61.49446
944937.4,320.6605,368.6905,58.04769,61.52192
944952.9,316.0381,369.173,57.67293,61.55331
944971.3,312.0454,369.485,57.34288,61.57358
944985.8,308.205,370.1798,57.01971,61.61863
945004.2,303.9353,371.0256,56.65369,61.67327
945022.1,299.2622,371.7559,56.24479,61.72031
945042.1,296.4056,372.4244,55.99045,61.76324
945057.6,294.1242,373,55.78489,61.8001
945071.8,291.4733,373.5417,55.54329,61.83471
945085.8,289.0305,373.8655,55.31798,61.85537
945105.6,286.7672,373.9734,55.10693,61.86224
945119.4,284.6634,374.2909,54.90873,61.88246
945135.5,283.1532,374.9078,54.76524,61.92166
945152.8,281.7629,375.1539,54.63224,61.93727
945171.1,280.6821,375.1697,54.52823,61.93827
945188.3,279.7108,375.2608,54.43432,61.94405
945203.9,278.4662,375.6084,54.31334,61.96606
945220.9,277.2506,375.9218,54.19449,61.98588
945236.6,276.1609,376.0117,54.08736,61.99156
945255.2,275.5638,375.902,54.02843,61.98463
945271.8,274.8062,375.9321,53.95341,61.98653
945288.3,273.7694,376.1564,53.85031,62.0007
945304.9,272.2964,376.139,53.70296,61.9996
945320.9,270.9529,376.1068,53.56764,61.99757
945338.2,270.171,376.1842,53.48849,62.00245
945355.1,269.6183,376.2125,53.43237,62.00425
945371.9,268.6597,376.2211,53.33467,62.00479
945388.5,267.391,376.1145,53.20467,61.99806
945404.5,266.5012,376.2658,53.11303,62.00761
945420.9,265.8596,376.8199,53.04671,62.04253
945437.6,265.0575,377.1977,52.9635,62.06631
945454.6,264.1165,377.1877,52.86548,62.06568
945471.1,263.3707,376.8132,52.78748,62.04211
945488.6,263.1014,376.4837,52.75924,62.02135
945506.3,263.0726,376.2988,52.75622,62.00969
945521.9,262.6594,375.9766,52.71281,61.98935
945540.8,261.4885,375.9113,52.58936,61.98522
945558.6,260.776,375.7813,52.5139,61.977
945572.6,260.2148,375.6618,52.45427,61.96944
945591.3,260.2667,375.5549,52.4598,61.96268
945606.8,260.4457,375.4937,52.47882,61.9588
945623.9,260.1772,375.2255,52.45028,61.94181
945641.3,259.9257,374.9409,52.42349,61.92376
945655.6,259.9482,374.8492,52.42588,61.91795
945672,260.2834,374.829,52.46157,61.91666
945690.8,260.6342,374.6153,52.49885,61.90308
945707.2,260.7737,374.2704,52.51365,61.88115
945724.8,260.8,373.9437,52.51645,61.86036
945740.1,260.9138,373.8133,52.52851,61.85204
945758.2,261.3086,373.6079,52.57033,61.83894
945772.6,261.7821,373.6049,52.62039,61.83875
945789.8,262.7131,373.4017,52.71846,61.82578
945807.9,263.4805,373.1431,52.79898,61.80925
945823,263.9892,372.8869,52.85218,61.79287
945839.2,264.3759,372.4728,52.89254,61.76634
945856.5,264.996,372.0198,52.95711,61.73727
945872.6,266.3393,371.4007,53.09631,61.69745
945895.8,267.1192,370.9821,53.17673,61.67047
945912.2,267.4885,370.5892,53.21469,61.6451
945927.8,267.8917,369.9095,53.25607,61.60112
945940,268.9877,369.0209,53.36814,61.54343
945963.9,269.4675,368.7104,53.41703,61.52322
945972.1,270.4979,368.245,53.52162,61.49287
945989.4,271.4748,367.74,53.62031,61.45989
946005.1,272.5009,366.4484,53.72347,61.37519
946022.1,273.5781,364.5035,53.83123,61.2468
946040.6,274.918,361.9184,53.9645,61.07449
946058.4,276.495,358.6978,54.12027,60.85717
946072.1,278.1045,355.8364,54.27804,60.66157
946089.1,279.4656,353.7844,54.41053,60.51982
946105.3,280.8963,352.6356,54.54889,60.43993
946122.3,282.2111,351.1179,54.67521,60.33376
946138.7,283.2708,349.1744,54.77645,60.1968
946155.4,284.3223,346.9187,54.87641,60.03638
946173.3,285.2781,344.737,54.96685,59.87973
946190.1,286.4923,342.7344,55.08115,59.73463
946210.1,287.5247,341.3243,55.17782,59.63171
946222.3,288.6492,340.0415,55.28259,59.53751
946238.6,289.6153,338.7937,55.37216,59.44538
946255.6,290.3319,337.5167,55.43834,59.35057
946272.3,290.8626,336.1273,55.4872,59.24682
946289.8,291.2746,334.767,55.52505,59.14462
946306.1,291.8615,333.5907,55.57886,59.05575
946322.3,292.3579,332.5375,55.62424,58.97579
946339.7,292.8924,331.6264,55.67299,58.90631
946355.5,293.3599,330.4764,55.71554,58.81823
946372.8,293.8149,329.0789,55.75686,58.71056
946389,294.1573,327.5651,55.78789,58.59319
946405.7,294.4158,326.2975,55.81128,58.4943
946423.6,294.2033,325.0512,55.79206,58.39653
946439.9,293.5887,323.5376,55.73633,58.27705
946455.7,293.3446,321.6229,55.71415,58.12474
946472.9,293.2912,319.2206,55.70929,57.93179
946489.4,292.7985,315.8131,55.66444,57.65449
946505.6,291.9669,312.9123,55.5885,57.41505
946522.3,290.9608,309.9182,55.49623,57.16457
946538.7,290.8306,306.274,55.48426,56.85506
946554.9,292.5347,301.4761,55.64038,56.4396
946583,294.2578,298.4629,55.79699,56.17395
946593.8,296.2339,295.6305,55.97506,55.92085
946608.3,298.2723,292.0356,56.15703,55.59479
946626.5,299.8252,287.518,56.29452,55.17719
946644.2,300.4661,283.6213,56.35098,54.80982
946658.4,301.1097,279.4748,56.4075,54.41143
946674.2,302.4523,275.3659,56.52488,54.00885
946692.6,304.0574,271.4785,56.66426,53.62068
946708.6,305.0217,267.4921,56.7475,53.21506
946725.3,305.388,263.8057,56.77903,52.83301
946743.3,305.7384,260.858,56.80914,52.5226
946758.8,306.5075,257.2493,56.87505,52.13651
946775.9,307.2294,253.9669,56.93671,51.77942
946792,307.6213,251.3011,56.97009,51.48519
946807.7,307.8282,248.8154,56.98769,51.20737
946826.3,308.0196,246.8888,57.00396,50.98971
946841.9,308.1572,244.7715,57.01565,50.74814
946860.8,308.2304,242.8689,57.02186,50.5289
946876.5,308.2129,241.1992,57.02037,50.33482
946892.6,308.2336,239.6824,57.02213,50.15712
946912.5,308.3364,238.2341,57.03086,49.98619
946926.6,308.1684,236.9641,57.0166,49.83531
946945.6,308.0238,235.6083,57.00431,49.67319
946962.9,308.2721,234.4422,57.0254,49.53288
946976.9,308.5632,233.3599,57.05009,49.40192
946992.7,308.6586,232.3887,57.05817,49.28383
947009.3,308.6425,231.3889,57.05681,49.16165
947026.8,308.7149,230.2469,57.06294,49.02134
947050.4,308.9186,228.8017,57.08018,48.84266
947063.7,309.2028,227.9537,57.10421,48.73722
947074.9,309.7854,227.3735,57.15338,48.66482
947091.5,310.2814,226.8605,57.19514,48.60062
947109.8,310.6053,226.2222,57.22235,48.52054
947128.3,310.9825,225.6579,57.25399,48.44951
947145.3,311.29,225.0842,57.27975,48.3771
947161.1,311.4967,224.3334,57.29705,48.28203
947176.9,311.6888,223.766,57.3131,48.20995
947192.1,311.788,223.0356,57.32139,48.11686
947211.2,311.721,222.356,57.3158,48.02993
947230.7,311.6798,221.7747,57.31236,47.95535
947244.3,311.5211,221.1331,57.29908,47.87278
947261.4,311.5296,220.4644,57.2998,47.78644
947276.9,311.3932,219.6468,57.28839,47.68048
947294.1,311.29,219.0391,57.27975,47.60145
947313.6,311.076,218.6344,57.26183,47.54868
947329.6,311.1084,218.2334,57.26455,47.4963
947344,311.3792,217.9146,57.28722,47.45458
947363.3,311.7396,217.5276,57.31735,47.40384
947376.6,311.7932,217.2924,57.32182,47.37295
947391.7,311.775,216.9662,57.3203,47.33006
947410.8,311.8844,216.6247,57.32944,47.28508
947428.4,312.1911,216.3218,57.35503,47.24511
947445.9,312.3905,216.1074,57.37164,47.21679
