Time Stamp(ms),Intersection,,Angle,
,x,y,x,y
1282767,314.1671,241.6043,57.51902,50.38205
1282781,314.0588,241.713,57.51006,50.3947
1282799,314.0689,241.6883,57.5109,50.39183
1282814,314.0256,241.6456,57.50732,50.38686
1282831,313.9076,241.6436,57.49755,50.38663
1282850,313.7104,241.764,57.48124,50.40065
1282865,313.4731,241.83,57.46158,50.40833
1282884,313.3882,241.7673,57.45455,50.40103
1282900,313.3445,241.678,57.45093,50.39064
1282914,313.2727,241.5948,57.44497,50.38094
1282930,313.1384,241.5721,57.43382,50.37829
1282948,312.9099,241.6245,57.41485,50.3844
1282968,312.7346,241.7033,57.40027,50.39358
1282983,312.6425,241.7375,57.39262,50.39756
1282999,312.5527,241.7343,57.38514,50.39719
1283016,312.3501,241.6936,57.36828,50.39245
1283033,312.0897,241.782,57.34657,50.40274
1283050,311.8814,241.7956,57.32919,50.40432
1283069,311.6422,241.7516,57.30921,50.3992
1283082,311.3911,241.7161,57.28821,50.39507
1283098,310.9749,241.6898,57.25336,50.392
1283114,310.3499,241.5965,57.2009,50.38114
1283131,309.4117,241.6246,57.12186,50.38442
1283147,308.5053,241.7242,57.04518,50.39601
1283164,306.7826,241.7784,56.89857,50.40231
1283190,303.8703,241.7802,56.64807,50.40253
1283209,300.6167,241.9116,56.36421,50.41782
1283226,296.5554,242.2581,56.00387,50.45808
1283236,293.9606,242.5526,55.77007,50.49225
1283249,289.6425,242.9635,55.37467,50.53985
1283266,284.8221,243.3585,54.92375,50.58551
1283284,279.855,243.2803,54.44828,50.57648
1283301,276.2397,243.4209,54.09512,50.59272
1283315,271.1484,243.4492,53.58739,50.59599
1283333,268.2443,243.4162,53.29219,50.59217
1283345,264.2325,243.4167,52.87759,50.59223
1283363,260.3244,243.6839,52.46593,50.62307
1283379,256.7413,243.7031,52.08161,50.62528
1283399,252.851,243.6138,51.65672,50.61497
1283424,249.3286,243.5482,51.26501,50.60741
1283434,247.0995,243.5659,51.01362,50.60945
1283448,244.2916,243.6279,50.69302,50.6166
1283465,242.0246,243.7781,50.43096,50.63392
1283478,239.8426,243.9531,50.17595,50.65408
1283495,237.6045,244.0258,49.91151,50.66245
1283512,235.4985,243.9826,49.66,50.65747
1283529,233.4722,243.8179,49.41555,50.63851
1283546,231.8462,243.6672,49.21761,50.62114
1283563,230.5309,243.8744,49.05631,50.64502
1283580,229.6072,244.6542,48.94241,50.73467
1283595,228.0664,245.2154,48.75126,50.79899
1283612,226.4099,245.7581,48.54412,50.86102
1283630,225.1333,246.231,48.38331,50.91493
1283646,223.9341,246.591,48.23133,50.95588
1283663,222.4609,247.3169,48.04337,51.03826
1283680,221.3063,247.2025,47.8951,51.02529
1283696,219.991,247.5142,47.72515,51.0606
1283712,218.337,248.2049,47.50984,51.13862
1283737,217.5011,248.5573,47.40036,51.17833
1283748,216.0677,248.9633,47.21155,51.224
1283764,214.5968,249.3112,47.01639,51.26306
1283781,212.9627,249.7222,46.79789,51.30911
1283799,211.7728,250.0818,46.63766,51.34933
1283814,210.7051,250.1891,46.49309,51.36133
1283835,209.6552,250.2066,46.35015,51.36328
1283850,208.4654,250.244,46.18728,51.36745
1283867,207.0919,250.2781,45.99804,51.37126
1283881,206.0537,250.3499,45.85414,51.37928
1283897,205.402,250.4576,45.76342,51.39129
1283913,204.5688,250.5807,45.64702,51.40502
1283931,203.5001,250.5528,45.49699,51.40191
1283947,202.549,250.4741,45.36279,51.39313
1283965,202.1933,250.496,45.31245,51.39557
1283981,201.898,250.6145,45.27058,51.40878
1283997,201.4874,250.7675,45.21227,51.42583
1284013,200.8608,250.9154,45.12303,51.4423
1284032,200.3638,251.0484,45.05206,51.4571
1284052,200.1206,251.3224,45.01727,51.48756
1284065,199.966,251.5168,44.99512,51.50914
1284081,199.7475,251.86,44.9638,51.5472
1284097,199.5173,252.1263,44.93077,51.57667
1284115,199.2832,252.3963,44.89714,51.60654
1284133,199.2321,252.5552,44.88979,51.62408
1284149,199.1645,252.7041,44.88008,51.64052
1284165,198.9251,252.9658,44.84562,51.66938
1284182,198.4993,253.1392,44.78423,51.68847
1284199,198.1753,253.3115,44.73743,51.70744
1284215,197.924,253.4732,44.70109,51.72522
1284232,197.6957,253.6442,44.66803,51.74401
1284249,197.4979,253.7115,44.63935,51.7514
1284272,197.1337,253.7629,44.58648,51.75704
1284285,196.768,253.7495,44.53329,51.75557
1284299,196.4025,253.7401,44.48003,51.75454
1284315,196.0333,253.7371,44.42614,51.75421
1284333,195.7492,253.8438,44.38461,51.76592
1284351,195.6005,253.9976,44.36283,51.78278
1284367,195.5202,254.0251,44.35107,51.7858
1284383,195.2629,254.0902,44.31336,51.79294
1284400,194.9782,254.2126,44.27158,51.80635
1284417,194.8188,254.3739,44.24815,51.824
1284434,194.6835,254.4966,44.22825,51.83744
1284451,194.6915,254.5353,44.22944,51.84167
1284468,194.6221,254.5389,44.21923,51.84206
1284485,194.4793,254.5829,44.1982,51.84687
1284503,194.3234,254.6032,44.17524,51.84909
1284520,194.1953,254.6381,44.15636,51.8529
1284535,193.86,254.7143,44.10687,51.86123
1284553,193.7424,254.7347,44.0895,51.86346
1284568,193.8392,254.7931,44.1038,51.86984
1284586,193.9726,254.7283,44.12349,51.86276
1284602,194.0454,254.6645,44.13425,51.85579
1284619,194.0442,254.7917,44.13406,51.86969
1284637,193.9832,254.8533,44.12506,51.87641
1284654,194.0976,254.8988,44.14194,51.88138
1284669,194.4356,254.9462,44.19177,51.88655
1284687,194.8933,254.9557,44.25911,51.88758
1284704,195.052,254.9874,44.28242,51.89104
1284720,195.058,255.0776,44.28329,51.90089
1284737,195.3233,255.2462,44.32222,51.91927
1284753,195.9372,255.2278,44.4121,51.91727
1284772,196.7126,255.2381,44.52523,51.91839
1284787,197.4866,255.1636,44.63771,51.91026
1284803,197.982,255.1611,44.70948,51.91
1284821,198.4734,255.1975,44.7805,51.91396
1284835,199.1507,255.1685,44.87808,51.9108
1284851,200.3198,255.177,45.04577,51.91173
1284872,201.3208,255.2422,45.18857,51.91883
1284885,202.6237,255.1767,45.37336,51.91169
1284904,203.8968,255.0984,45.55278,51.90315
1284919,205.6452,255.0113,45.79731,51.89366
1284935,208.3372,254.9442,46.16967,51.88634
1284953,211.0978,254.9017,46.54635,51.88169
1284968,213.811,254.9356,46.91154,51.8854
1284985,217.139,255.024,47.35279,51.89504
1285008,220.4499,255.2008,47.78457,51.91432
1285021,223.2567,255.364,48.14507,51.93211
1285036,226.2287,255.5594,48.52136,51.95337
1285050,229.8859,255.9393,48.97684,51.99468
1285068,232.6821,256.1013,49.31956,52.01226
1285084,235.7304,256.5003,49.68784,52.05553
1285101,239.453,257.3701,50.13012,52.14955
1285118,243.0599,258.5625,50.551,52.27778
1285136,246.7397,260.1035,50.97278,52.44242
1285155,249.7948,261.2638,51.31725,52.56559
1285171,252.5027,262.2656,51.61829,52.67137
1285187,255.261,263.0803,51.92089,52.75703
1285205,257.578,263.4504,52.17196,52.79583
1285221,260.2903,263.6677,52.4623,52.81858
1285238,262.9798,263.6755,52.74648,52.81939
1285253,266.03,263.6436,53.06434,52.81605
1285271,269.2978,263.7167,53.39975,52.8237
1285287,272.6366,263.7977,53.73708,52.83217
1285306,277.5314,264.0568,54.222,52.85924
1285327,281.1812,264.556,54.57633,52.91132
1285340,284.0517,265.1875,54.85073,52.97701
1285352,287.1574,265.7263,55.14347,53.0329
1285370,290.4959,266.0032,55.45345,53.06157
1285387,293.5898,266.0514,55.73642,53.06656
1285405,297.139,266.0053,56.05606,53.06178
1285422,300.2767,265.8025,56.33431,53.04079
1285438,303.1647,265.6269,56.58687,53.0226
1285453,306.7945,265.1841,56.89958,52.97666
1285470,310.0274,264.7407,57.17377,52.93055
1285488,312.7432,264.1145,57.40099,52.86527
1285504,315.2185,263.4291,57.60567,52.7936
1285523,317.741,262.548,57.8119,52.70111
1285543,321.1742,261.8776,58.08886,52.63046
1285556,323.5886,261.5528,58.28108,52.59616
1285570,326.1901,261.2336,58.48589,52.56239
1285586,328.7874,260.9073,58.68802,52.52782
1285605,331.1311,260.8356,58.86843,52.52021
1285622,333.2984,261.1102,59.0336,52.54932
1285639,335.0587,261.4178,59.16659,52.58189
1285654,336.9478,261.8661,59.30817,52.62925
1285672,338.5692,262.3801,59.42875,52.68343
1285690,339.8658,262.7169,59.52457,52.71887
1285705,341.1484,263.0325,59.61882,52.75201
1285722,342.4378,263.3106,59.71304,52.78118
1285737,343.6043,263.5351,59.79782,52.8047
1285755,344.9297,263.8534,59.89363,52.838
1285772,346.2348,264.0182,59.98743,52.85521
1285790,347.7385,264.1187,60.09486,52.86571
1285804,349.8305,264.3383,60.24316,52.88863
1285824,352.4375,264.705,60.42611,52.92683
1285846,354.0158,264.817,60.53587,52.93849
1285857,355.765,264.9534,60.65666,52.95268
1285872,357.7292,265.1813,60.79123,52.97636
1285891,359.6489,265.4417,60.92165,53.0034
1285907,361.207,265.5229,61.02674,53.01182
1285928,363.3687,265.5214,61.17139,53.01167
1285943,365.2727,265.6387,61.2977,53.02383
1285956,367.1299,265.5727,61.41994,53.01698
1285974,369.2252,265.332,61.55671,52.99201
1285991,371.251,264.9604,61.68781,52.95341
1286009,372.8947,264.7302,61.79336,52.92945
1286024,374.8606,264.6624,61.91866,52.9224
1286040,376.778,264.6161,62.0399,52.91757
1286058,378.2664,264.517,62.13334,52.90725
1286073,380.1292,263.999,62.24948,52.85321
1286091,381.9453,263.3766,62.36186,52.78809
1286110,383.4811,262.9534,62.45625,52.7437
1286124,384.8593,262.5885,62.54043,52.70536
1286141,386.4041,261.8861,62.63424,52.63136
1286159,387.7175,261.4173,62.71353,52.58183
1286173,388.9627,260.8776,62.78831,52.52467
1286190,390.19,260.3746,62.86164,52.47127
1286206,391.6561,259.6916,62.94878,52.39854
1286225,393.2038,259.1421,63.0402,52.33985
1286240,394.7718,258.5799,63.13223,52.27965
1286258,395.9801,258.2215,63.20276,52.24118
1286274,397.8539,257.7606,63.31145,52.19162
1286292,399.9029,257.1824,63.42939,52.12928
1286311,402.2741,256.8062,63.56466,52.08864
1286336,403.733,256.6188,63.64725,52.06836
1286349,404.6577,256.1962,63.69935,52.02256
1286360,405.6643,255.6532,63.75585,51.96358
1286372,407.3974,254.5064,63.8526,51.8385
1286391,409.0003,253.7857,63.9415,51.75954
1286407,410.4702,253.4009,64.02252,51.71727
1286424,411.2442,253.3374,64.065,51.71029
1286440,411.5633,253.0413,64.08247,51.67769
1286456,411.7266,252.4869,64.09141,51.61654
1286472,411.9189,252.0134,64.10192,51.56419
1286490,411.9079,251.6827,64.10132,51.52754
1286508,411.8769,251.285,64.09962,51.4834
1286523,411.8976,251.0541,64.10076,51.45774
1286540,411.7495,250.9318,64.09266,51.44413
1286556,411.4514,250.7994,64.07635,51.42939
1286573,411.2419,250.7084,64.06487,51.41925
1286588,411.2073,250.7196,64.06298,51.4205
1286606,411.4305,250.7016,64.0752,51.4185
1286622,411.7767,250.7253,64.09415,51.42113
1286638,412.0702,250.9396,64.11019,51.445
1286654,412.3674,251.1238,64.12641,51.46548
1286671,412.6967,250.9735,64.14436,51.44876
1286688,413.3254,250.7589,64.17858,51.42487
1286704,413.9323,250.6828,64.21152,51.4164
1286721,414.3456,250.6427,64.23392,51.41194
1286737,414.4482,250.4338,64.23947,51.38863
1286755,414.4426,250.097,64.23917,51.35104
1286775,414.4671,249.6331,64.24049,51.29914
1286788,414.7829,249.0282,64.25757,51.23129
1286804,415.1961,248.6751,64.27988,51.1916
1286822,415.3767,248.2828,64.28962,51.1474
1286838,415.4471,247.9002,64.29342,51.10423
1286854,415.4448,247.7688,64.29329,51.08939
1286872,415.3901,247.5886,64.29034,51.06902
1286888,415.2972,247.2977,64.28533,51.03608
1286905,415.2009,247.0329,64.28014,51.00607
1286925,414.9962,246.9116,64.26909,50.9923
1286940,414.5945,246.7716,64.24738,50.97641
1286956,414.3842,246.5741,64.23601,50.95397
1286974,414.3182,246.4111,64.23243,50.93543
1286989,414.2389,246.4392,64.22813,50.93863
1287005,414.1021,246.5433,64.22073,50.95047
1287023,413.9498,246.6431,64.21247,50.9618
1287039,413.7783,246.6903,64.20317,50.96717
1287056,413.648,246.7873,64.1961,50.97819
1287075,413.5177,246.9131,64.18903,50.99247
1287091,413.2494,247.0213,64.17445,51.00475
1287108,413.0993,247.1273,64.16628,51.01677
1287125,412.9938,247.296,64.16055,51.03588
1287141,412.8884,247.4641,64.15481,51.05492
1287157,412.7181,247.7024,64.14553,51.08188
1287173,412.5732,247.8673,64.13763,51.10052
1287190,412.4146,247.9149,64.12899,51.10589
1287206,412.1205,248.1632,64.11294,51.13392
1287224,411.7645,248.4438,64.09348,51.16556
1287242,411.4546,248.6626,64.07652,51.19019
1287255,411.1246,248.821,64.05844,51.20801
1287272,410.8825,249.1496,64.04517,51.24492
1287289,410.5015,249.7242,64.02425,51.30933
1287307,410.0951,250.1936,64.00188,51.36183
1287333,409.7892,250.6256,63.98504,51.41003
1287343,409.7162,251.075,63.98102,51.46006
1287359,409.6233,251.5764,63.97589,51.51575
1287373,409.2395,252.2097,63.95472,51.5859
1287392,408.9196,252.7675,63.93703,51.64751
1287408,408.6915,253.2557,63.92442,51.7013
1287424,408.4106,253.538,63.90886,51.73233
1287441,408.0628,253.8017,63.88958,51.76129
1287456,407.7983,254.0536,63.87489,51.78892
1287473,407.6661,254.3408,63.86754,51.82038
1287494,407.5944,254.6495,63.86356,51.85415
1287507,407.4457,254.8923,63.85529,51.88066
1287524,407.1568,254.8781,63.83921,51.87912
1287541,406.9557,254.8764,63.82801,51.87893
1287556,406.7492,255.0049,63.81649,51.89296
1287575,406.5024,255.1089,63.80272,51.90431
1287594,406.3752,255.0144,63.79562,51.89399
1287608,406.318,255.0154,63.79242,51.8941
1287625,406.1759,255.0327,63.78448,51.89599
1287644,405.9181,254.9315,63.77006,51.88495
1287661,405.6513,254.6918,63.75512,51.85878
1287675,405.4623,254.4432,63.74453,51.83159
1287690,405.2166,254.1217,63.73075,51.79638
1287710,404.9554,253.7852,63.71608,51.75948
1287728,404.4427,253.3566,63.68725,51.7124
1287745,403.8445,252.7974,63.65354,51.65081
1287764,403.3308,252.0128,63.62452,51.56412
1287778,402.9403,251.226,63.60243,51.47684
1287795,402.4906,250.4676,63.57694,51.39241
1287812,401.963,249.6991,63.54698,51.30653
1287828,401.2844,248.9131,63.50835,51.21836
1287846,400.7437,248.095,63.4775,51.12623
1287860,400.238,247.1455,63.44858,51.01883
1287877,399.7083,246.3178,63.41822,50.92481
1287894,399.0246,245.6325,63.37895,50.84668
1287913,398.4065,245.0756,63.34336,50.78299
1287931,397.8756,244.7328,63.31271,50.7437
1287949,397.1628,244.5889,63.27147,50.72718
1287963,396.2947,244.5264,63.22107,50.72
1287983,395.4155,244.6031,63.16985,50.72881
1287996,394.7625,244.5997,63.13169,50.72842
1288009,394.1074,244.6776,63.0933,50.73736
1288029,393.7372,245.0564,63.07157,50.78079
1288046,393.4694,245.3187,63.05582,50.81081
1288062,393.1306,245.5866,63.03588,50.84143
1288077,392.8816,245.9247,63.02121,50.88003
1288093,392.6443,246.3746,63.00721,50.93127
1288110,392.4393,246.7327,62.99511,50.97199
1288128,392.3521,246.9403,62.98996,50.99556
1288144,392.2449,247.2068,62.98362,51.02578
1288161,392.0724,247.5041,62.97343,51.05945
1288177,391.694,247.6836,62.95102,51.07976
1288193,391.3287,247.8176,62.92936,51.09491
1288210,390.9291,247.7657,62.90564,51.08904
1288229,390.5836,247.7998,62.88509,51.09289
1288246,390.255,247.7972,62.86552,51.0926
1288261,390.0133,247.9201,62.85111,51.10649
1288278,389.9018,248.0205,62.84446,51.11781
1288293,389.6993,248.0778,62.83237,51.12428
1288312,389.4394,248.168,62.81684,51.13446
1288332,389.2434,248.2344,62.80512,51.14196
1288346,389.084,248.387,62.79557,51.15915
1288362,388.983,248.5352,62.78953,51.17584
1288380,388.8206,248.5433,62.7798,51.17676
1288397,388.7125,248.482,62.77332,51.16985
1288411,388.6478,248.4255,62.76943,51.16349
1288437,388.7627,248.424,62.77633,51.16332
1288448,388.8584,248.528,62.78206,51.17503
1288463,388.8716,248.778,62.78285,51.20317
1288479,388.7337,248.9712,62.77459,51.22489
1288495,388.5258,249.1167,62.76212,51.24123
1288510,388.3045,249.1444,62.74883,51.24434
1288527,388.1806,249.0842,62.74139,51.23758
1288547,387.9911,249.153,62.72999,51.2453
1288559,387.7195,249.3681,62.71365,51.26944
1288579,387.34,249.715,62.69078,51.3083
1288594,387.0375,249.8519,62.67253,51.32363
1288612,386.7925,249.9068,62.65773,51.32978
1288627,386.6543,250.0431,62.64938,51.34501
1288644,386.5423,250.2613,62.6426,51.36938
1288660,386.2232,250.6471,62.62328,51.41242
1288678,385.9679,250.9143,62.60781,51.44218
1288692,385.7226,251.0322,62.59293,51.4553
1288709,385.3706,251.2616,62.57154,51.4808
1288733,385.0505,251.6603,62.55208,51.52505
1288743,384.6495,252.1862,62.52765,51.58331
1288759,384.2022,252.8684,62.50035,51.65864
1288776,383.9269,253.3082,62.48353,51.70707
1288793,383.7753,253.6761,62.47426,51.74751
1288811,383.5349,253.8281,62.45954,51.76419
1288826,383.4347,254.0686,62.4534,51.79057
1288843,383.3653,254.2587,62.44915,51.81139
1288860,383.2707,254.2745,62.44335,51.81312
1288876,383.1981,254.5188,62.4389,51.83986
1288893,383.1456,254.8177,62.43568,51.87252
1288910,383.0093,255.0772,62.42731,51.90084
1288928,382.895,255.2731,62.4203,51.9222
1288944,382.7524,255.6331,62.41154,51.96139
1288961,382.4948,255.7915,62.3957,51.97862
1288977,382.287,255.7336,62.38291,51.97232
1288993,382.165,255.7654,62.3754,51.97578
1289010,382.3124,255.9942,62.38448,52.00063
1289032,382.4051,256.1487,62.39018,52.0174
1289044,382.4506,256.213,62.39298,52.02439
1289060,382.5208,256.2106,62.3973,52.02412
1289077,382.5746,256.3149,62.40061,52.03543
1289097,382.5692,256.4804,62.40028,52.05337
1289111,382.5356,256.6881,62.3982,52.07586
1289128,382.4541,256.8352,62.3932,52.09177
1289143,382.2023,257.0378,62.3777,52.11367
1289162,381.9752,257.0916,62.3637,52.11948
1289178,381.8205,257.1264,62.35416,52.12324
1289194,381.8735,257.2149,62.35744,52.13279
1289211,381.9053,257.4099,62.35939,52.15383
1289227,381.8335,257.7079,62.35497,52.18594
1289246,381.7324,257.8874,62.34874,52.20527
1289261,381.7164,258.0452,62.34774,52.22224
1289278,381.7791,258.1323,62.35161,52.23161
1289296,381.738,258.1797,62.34908,52.2367
1289311,381.6032,258.3308,62.34076,52.25292
1289328,381.2561,258.4725,62.31932,52.26813
1289352,381.1214,258.5073,62.31099,52.27186
1289361,380.9374,258.4721,62.2996,52.26809
1289378,380.8584,258.4013,62.29471,52.26049
1289398,380.7785,258.4735,62.28976,52.26824
1289411,380.6748,258.4362,62.28334,52.26424
1289431,380.5629,258.5555,62.2764,52.27703
1289449,380.468,258.7549,62.27052,52.29841
1289461,380.2518,258.9051,62.2571,52.3145
1289482,380.0864,258.8148,62.24683,52.30482
1289497,380.0347,258.6826,62.24361,52.29066
1289513,379.9753,258.7182,62.23992,52.29448
1289530,379.8474,258.9317,62.23198,52.31734
1289546,379.6903,259.0024,62.2222,52.32491
1289566,379.5209,259.0759,62.21166,52.33278
1289578,379.5895,259.0912,62.21593,52.3344
1289595,379.6464,259.1989,62.21947,52.34592
1289614,379.6008,259.3614,62.21663,52.36329
1289631,379.2917,259.515,62.19738,52.37969
1289648,378.9874,259.4944,62.1784,52.3775
1289662,378.93,259.2818,62.17482,52.35479
1289682,378.7999,259.2728,62.1667,52.35382
1289697,378.5797,259.4062,62.15294,52.36808
1289714,378.164,259.4747,62.12693,52.3754
1289732,377.8037,259.3808,62.10435,52.36536
1289749,377.584,259.4257,62.09057,52.37016
1289764,377.3245,259.4724,62.07428,52.37515
1289783,377.0511,259.5288,62.05709,52.38117
1289797,376.7293,259.6642,62.03683,52.39562
1289813,376.4636,259.8164,62.02008,52.41185
1289833,376.2426,259.9984,62.00615,52.43123
1289849,376.054,260.1767,61.99423,52.45022
1289867,375.8115,260.3045,61.97891,52.46381
1289885,375.5257,260.4092,61.96083,52.47494
1289898,375.0273,260.6346,61.92924,52.49889
1289914,374.1758,261.0804,61.87513,52.54616
1289936,373.4899,261.2414,61.83141,52.56322
1289950,372.772,261.3504,61.78551,52.57476
1289967,372.0655,261.3965,61.7402,52.57963
1289983,371.0997,261.6065,61.67805,52.60183
1289999,370.0348,261.8418,61.60924,52.62668
1290014,368.7158,262.0381,61.52357,52.6474
1290032,367.5157,262.213,61.44521,52.66583
1290049,366.2815,262.3843,61.36422,52.68388
1290067,364.6258,262.6404,61.2549,52.71082
1290082,362.9449,262.7664,61.14314,52.72406
1290098,361.2619,262.78,61.03043,52.72549
1290114,359.5941,262.6874,60.91795,52.71577
1290132,358.3086,262.804,60.8307,52.72801
1290149,357.2536,262.8871,60.75874,52.73675
1290164,356.1477,263.1197,60.68297,52.76115
1290181,355.1693,263.2662,60.61562,52.77652
1290197,354.4437,263.5541,60.56551,52.80668
1290213,353.9618,263.8179,60.53213,52.83428
1290230,353.7682,264.0211,60.5187,52.85551
1290247,353.5914,264.1594,60.50643,52.86995
1290265,353.5177,264.1779,60.50132,52.87189
1290282,353.6227,264.3413,60.5086,52.88894
1290298,353.5129,264.5872,60.50098,52.91457
1290315,353.4861,264.8581,60.49911,52.94277
1290331,353.6689,265.0145,60.51181,52.95903
1290347,353.8449,265.1391,60.52402,52.97198
1290371,353.96,265.3017,60.53201,52.98886
1290383,354.092,265.5421,60.54116,53.01381
1290400,354.2344,265.6645,60.55102,53.0265
