Time Stamp(ms),Intersection,,Angle,
,x,y,x,y
338571.1,329.2932,245.464,58.72712,50.82742
338586.6,329.333,245.548,58.73019,50.83702
338603,329.4673,245.6372,58.74055,50.84721
338619.6,329.507,245.7052,58.74362,50.85498
338634.9,329.4703,245.8104,58.74079,50.86699
338656.2,329.4967,245.8942,58.74282,50.87654
338671,329.435,245.8481,58.73806,50.87128
338686.1,329.3504,245.8042,58.73153,50.86628
338704.3,329.3758,245.7408,58.73349,50.85904
338723.9,329.4119,245.8089,58.73627,50.86682
338739.6,329.4568,245.8781,58.73974,50.8747
338755.9,329.4998,245.8595,58.74306,50.87259
338774,329.5217,245.8306,58.74475,50.86929
338789.7,329.5396,245.7176,58.74613,50.85639
338808.5,329.48,245.5973,58.74154,50.84265
338824.9,329.4675,245.6021,58.74057,50.8432
338838.4,329.4112,245.5743,58.73622,50.84002
338860.2,329.3751,245.5628,58.73344,50.83872
338875,329.3027,245.5751,58.72785,50.84012
338890.5,329.3589,245.7242,58.73219,50.85714
338906.6,329.4089,245.7198,58.73605,50.85664
338924.4,329.4505,245.7148,58.73925,50.85607
338941.7,329.1958,245.6606,58.7196,50.84989
338958.7,328.844,245.5869,58.6924,50.84146
338974.6,328.4144,245.5387,58.65914,50.83595
338991.5,328.0285,245.6024,58.62921,50.84324
339009.1,327.5847,245.5965,58.59472,50.84256
339026.3,326.9127,245.466,58.54237,50.82765
339040.7,325.8184,245.3121,58.45678,50.81005
339057.4,324.8412,245.2995,58.37999,50.80861
339073.9,323.7588,245.4309,58.29456,50.82364
339090.9,322.4716,245.5722,58.19241,50.83979
339108.7,320.4303,245.6358,58.02921,50.84705
339125.2,318.3634,245.7938,57.86243,50.86509
339142,316.3211,246.1754,57.69611,50.9086
339157.8,314.0163,246.9549,57.50655,50.99722
339174,311.4323,247.6186,57.29166,51.0724
339191.8,308.7242,248.3444,57.06373,51.15435
339208.3,304.9553,249.5202,56.74178,51.28649
339227.2,301.9323,250.5642,56.47951,51.40318
339243.4,298.4362,251.8629,56.17159,51.54752
339257.2,294.4191,253.4393,55.81159,51.72149
339273.2,290.4414,254.9949,55.44843,51.89187
339290.7,285.9756,256.4688,55.03259,52.05212
339307.7,281.7057,257.5453,54.62675,52.16843
339326.1,276.65,258.4712,54.13551,52.26799
339343,272.2442,259.3998,53.69771,52.36739
339359.8,268.4025,260.4269,53.30838,52.47683
339373.8,264.1913,261.3899,52.87329,52.57893
339391.3,259.9802,262.122,52.42929,52.65625
339410.3,256.9935,262.3682,52.10889,52.68217
339425.9,254.0125,262.4816,51.78442,52.69412
339441.2,250.929,262.8465,51.44382,52.73248
339459.7,248.2934,263.144,51.1486,52.76371
339474.9,245.4599,263.5485,50.82695,52.80609
339491.3,243.0609,263.7306,50.55112,52.82515
339509,241.213,263.9585,50.33643,52.84897
339524.9,239.5799,264.0721,50.14505,52.86084
339541,238.069,263.6094,49.96664,52.81247
339559.8,236.5983,263.2676,49.79167,52.77667
339573,235.1929,262.7648,49.62329,52.72389
339590.4,233.7638,262.6781,49.45088,52.71478
339608.2,232.4232,262.6913,49.28803,52.71617
339624.6,231.4435,262.6571,49.16833,52.71257
339641.4,230.7611,262.6001,49.08462,52.70658
339658,229.8281,262.3469,48.9697,52.67993
339673.4,229.0425,262.1632,48.87252,52.66059
339690.8,228.1787,262.0352,48.76524,52.64709
339707.7,227.1791,262.0651,48.64051,52.65024
339723.9,226.0858,261.6748,48.50339,52.60905
339741.1,225.3389,261.1945,48.40928,52.55826
339757.2,224.6015,260.9167,48.31602,52.52882
339773.2,223.3078,260.635,48.15159,52.49893
339790.9,222.1981,260.4324,48.0097,52.47741
339807.9,221.4018,260.4723,47.90739,52.48165
339823.9,220.8141,260.4014,47.83163,52.47411
339841.3,220.4458,260.0911,47.78403,52.44111
339860.7,220.4301,259.8329,47.782,52.4136
339874.7,220.0667,259.6907,47.73495,52.39845
339892,219.6722,259.6521,47.68379,52.39433
339910,219.4955,259.6667,47.66083,52.39589
339926.1,219.3105,259.7145,47.63678,52.40098
339943.3,219.183,259.7154,47.62019,52.40108
339959.7,218.9763,259.6975,47.59327,52.39917
339975.5,218.8406,259.7491,47.57558,52.40467
339996.2,218.899,259.7148,47.58321,52.40102
340011.4,219.0847,259.644,47.6074,52.39346
340027,219.3244,259.4801,47.63858,52.37597
340043.5,219.3001,259.4158,47.63542,52.3691
340062.3,219.3443,259.3345,47.64118,52.36042
340077,219.6405,259.3428,47.67967,52.36131
340093.3,219.7003,259.3647,47.68743,52.36365
340111.6,219.4129,259.1873,47.6501,52.34468
340127.1,219.1956,258.9012,47.62183,52.31408
340144.3,219.2711,258.797,47.63166,52.30291
340159.7,219.5052,258.6706,47.6621,52.28937
340176.4,219.7858,258.3271,47.69853,52.25252
340193.7,220.2013,257.9211,47.75239,52.20889
340211.2,220.6214,257.7121,47.80673,52.1864
340227,221.1263,257.5082,47.8719,52.16443
340245,221.5535,257.3413,47.92691,52.14644
340263.1,221.8211,257.0996,47.96132,52.12035
340279.1,221.8762,256.8352,47.96839,52.09177
340294.7,221.7268,256.1721,47.9492,52.01994
340313.2,221.7053,255.6028,47.94643,51.9581
340329.3,221.6685,255.212,47.9417,51.91554
340346,221.8242,254.9644,47.96171,51.88854
340363,221.9278,254.6323,47.97501,51.85226
340397.9,221.9025,254.1651,47.97176,51.80114
340415.2,221.6536,254.0283,47.93979,51.78616
340432,221.5127,253.7553,47.92166,51.7562
340444.3,221.4475,253.4904,47.91327,51.7271
340456.2,221.4785,253.2918,47.91727,51.70527
340467.8,221.5368,253.1633,47.92477,51.69113
340478.9,221.5703,253.0929,47.92907,51.68338
340496.6,221.6826,253.1859,47.94352,51.69361
340513.4,221.7002,253.1994,47.94578,51.6951
340530.5,221.8286,253.3436,47.96227,51.71097
340553.2,221.9366,253.4221,47.97615,51.7196
340567.4,222.0776,253.5707,47.99424,51.73593
340579.7,222.2524,253.754,48.01665,51.75607
340595.6,222.5492,254.1482,48.05467,51.79929
340613.3,222.9113,254.6099,48.10098,51.84982
340630,223.4036,255.2424,48.1638,51.91885
340647.9,223.7913,255.6002,48.21317,51.95782
340664,224.2108,255.8614,48.26647,51.98621
340683.5,224.7939,256.2412,48.34039,52.02745
340698.3,225.5931,256.8796,48.44135,52.09657
340713.3,226.4336,257.5851,48.54709,52.17272
340730.8,227.3631,258.3861,48.66352,52.25886
340747,228.1778,259.4053,48.76513,52.36798
340764.5,228.7628,260.7,48.83783,52.50583
340780.8,229.561,262.1512,48.93671,52.65932
340801.1,230.5731,263.734,49.0615,52.8255
340812.7,232.1725,265.864,49.25745,53.04716
340830.9,233.9967,267.6492,49.47906,53.23119
340849.9,235.979,269.2371,49.71762,53.39357
340868.4,237.8068,270.5608,49.93553,53.52799
340881.3,238.77,271.5135,50.04958,53.62421
340895.3,239.4305,272.7184,50.12747,53.74527
340911.8,240.231,274.1292,50.22154,53.88615
340929.8,240.4293,275.0472,50.24478,53.97731
340948.8,240.8205,275.3411,50.29057,54.0064
340965.6,241.4615,275.915,50.36541,54.06311
340979.7,242.4167,276.6284,50.47649,54.13338
340994.9,243.813,277.4924,50.63795,54.21819
341012.8,245.0631,278.1458,50.78155,54.28208
341029.3,246.1496,278.5821,50.90566,54.32463
341046,247.031,279.0759,51.00585,54.37268
341063.4,247.5781,279.5948,51.06783,54.42307
341080.1,248.2211,279.9703,51.14045,54.45945
341100.2,249.1419,280.1707,51.24405,54.47883
341114.8,250.271,280.1782,51.37047,54.47956
341130.8,251.4712,280.4655,51.50407,54.50733
341146.5,253.0913,281.0784,51.6832,54.56643
341164.6,254.5245,281.7363,51.84048,54.62968
341183.1,256.077,282.327,52.00962,54.68631
341200,257.7584,282.7194,52.19138,54.72383
341213.1,259.8299,283.1244,52.41329,54.76249
341235.8,262.0188,283.8006,52.64536,54.82687
341250.6,263.9314,284.2426,52.84615,54.86885
341263.9,265.8704,284.5627,53.04782,54.89919
341280.2,267.9448,284.8402,53.26152,54.92546
341296.3,269.944,285.5472,53.46546,54.99223
341312.8,272.3207,286.6695,53.70539,55.09777
341329.6,275.5449,288.2617,54.02655,55.24654
341346.9,278.8072,289.7363,54.34655,55.38334
341367.8,282.4774,291.5168,54.70069,55.54727
341386.8,285.0266,292.9524,54.94309,55.67846
341396.5,287.9042,294.7726,55.21323,55.84353
341412.5,291.097,296.679,55.50875,56.01493
341429.8,295.3193,298.8623,55.89284,56.20938
341447.8,298.8396,300.0877,56.20737,56.31766
341463.9,302.2997,301.194,56.51157,56.41489
341480.4,305.8949,302.4493,56.82256,56.52462
341496.3,309.8568,304.0933,57.15939,56.66737
341512.8,314.8045,306.1373,57.57159,56.84335
341531.7,318.2255,307.1023,57.85125,56.92586
341547,321.626,307.6402,58.12498,56.9717
341565,324.7137,307.9996,58.36996,57.00226
341581.1,328.3618,308.5872,58.65506,57.05212
341597.7,333.2157,309.4526,59.02732,57.12531
341614.2,337.9491,310.631,59.38274,57.22451
341634.6,342.679,311.7822,59.73061,57.32091
341655.1,346.6069,312.746,60.01408,57.40123
341666.2,350.527,313.7626,60.29224,57.48557
341685.4,354.4215,314.3662,60.56397,57.53546
341703.3,357.9447,314.3305,60.80592,57.53251
341718.2,361.4128,313.6415,61.04057,57.47553
341733.9,364.633,313.2452,61.25537,57.44269
341748.4,367.9976,313.0835,61.47672,57.42926
341766.4,371.2754,313.4225,61.68938,57.45739
341782,374.6819,313.6746,61.90732,57.47828
341803.4,377.9133,313.3037,62.11123,57.44754
341819.7,380.621,312.4831,62.28,57.37935
341831.9,383.606,311.4663,62.46389,57.2945
341848.8,387.127,310.5042,62.67793,57.21386
341869.7,389.4809,310.1465,62.81932,57.18379
341889,392.6707,309.8997,63.00877,57.16302
341905.5,395.2384,309.748,63.15951,57.15023
341915.2,397.8932,309.6409,63.31372,57.1412
341935.5,400.2838,309.5677,63.4512,57.13503
341949.5,402.6047,309.3884,63.58342,57.11989
341965.9,404.6493,309.2437,63.69888,57.10767
341982.3,406.6133,309.286,63.80891,57.11125
342000,408.6306,309.4668,63.92104,57.12651
342015.8,410.3988,309.6595,64.0186,57.14277
342032.9,411.7975,309.6475,64.09528,57.14176
342052.1,413.0461,309.6659,64.16339,57.1433
342066.9,413.7378,309.6073,64.20097,57.13836
342086.6,414.4858,309.47,64.2415,57.12678
342104.1,415.0563,309.3739,64.27233,57.11867
342120.3,415.6973,309.3442,64.30689,57.11616
342136,416.3569,309.596,64.34237,57.13741
342153.5,417.2997,310.1837,64.39291,57.18692
342171.8,418.0492,310.1704,64.43296,57.1858
342190.1,418.5815,310.0308,64.46133,57.17405
342208.4,419.0265,310.0045,64.48501,57.17184
342221.2,419.6689,310.171,64.51911,57.18585
342238.4,420.3402,310.1559,64.55466,57.18458
342254.5,421.0788,309.9948,64.59367,57.17102
342270.9,421.6142,309.6127,64.62186,57.13882
342287.9,422.0136,309.2726,64.64287,57.11011
342307.6,422.5646,308.9716,64.67178,57.08467
342322.9,423.16,308.5836,64.70296,57.05182
342337,423.7716,308.1416,64.73492,57.01432
342354.7,424.3355,307.4525,64.76432,56.95571
342371,424.7783,306.6384,64.78735,56.88624
342389.3,425.3943,306.0502,64.81934,56.83588
342405.3,425.753,305.1951,64.83793,56.76244
342420.6,426.495,304.1096,64.8763,56.66878
342437.4,426.9708,303.3073,64.90085,56.59925
342453.4,427.5721,302.6645,64.93182,56.54337
342470.3,427.9509,301.9717,64.95128,56.48294
342489,428.1638,301.1704,64.96221,56.41283
342505.9,428.6028,299.7413,64.98472,56.28712
342524.7,429.2267,298.7156,65.01664,56.19638
342538.3,429.9678,297.9749,65.05446,56.13058
342553.3,430.6384,297.1974,65.08858,56.06129
342571,431.3043,296.4356,65.12238,55.99314
342587.2,432.3112,295.5645,65.17333,55.91492
342604.5,433.1961,294.8253,65.21796,55.84829
342621.2,434.0077,294.0734,65.25874,55.78029
342636.9,434.8643,293.1458,65.30166,55.69606
342653.7,435.6386,292.1593,65.34033,55.60609
342671.2,436.3008,291.3986,65.37331,55.53643
342687.2,436.6848,290.7695,65.3924,55.47864
342705.4,437.1728,290.0174,65.41661,55.40931
342723,437.3844,289.37,65.4271,55.34945
342735.7,437.6988,288.5463,65.44267,55.27303
342752.4,437.9959,287.6434,65.45736,55.1889
342770.5,438.2948,286.8729,65.47213,55.11684
342788.2,438.6151,286.1879,65.48793,55.05255
342804,438.9349,285.347,65.50369,54.97335
342819.7,439.3396,284.6586,65.52361,54.90827
342835.8,439.7341,283.9584,65.54299,54.84187
342852.8,439.8921,283.0151,65.55075,54.75207
342875.4,440.0023,282.6435,65.55615,54.71658
342888.6,440.2139,282.1323,65.56654,54.66766
342907.4,440.5251,281.7984,65.58178,54.63564
342924,440.8837,281.3794,65.59932,54.59539
342939.9,441.0491,281.0192,65.60741,54.56073
342953.6,441.2396,280.7302,65.61671,54.53287
342972.9,441.4628,280.4944,65.6276,54.51011
342989.7,441.6636,280.1874,65.6374,54.48045
343004.9,441.847,279.9463,65.64634,54.45712
343020.5,442.0916,279.92,65.65825,54.45458
343037.2,442.3764,279.8745,65.6721,54.45018
343053.7,442.6946,279.7834,65.68756,54.44135
343073.5,443.0127,279.7056,65.703,54.43381
343088.1,443.2115,279.757,65.71264,54.4388
343108.6,443.3128,279.8687,65.71754,54.44961
343121.1,443.1023,279.8347,65.70734,54.44632
343137.7,442.8507,279.8111,65.69514,54.44403
343154.5,442.6089,279.7584,65.6834,54.43893
343174.3,442.4234,279.7886,65.67439,54.44185
343189.4,442.2402,279.9799,65.66547,54.46038
343206.4,441.9437,280.1286,65.65105,54.47476
343222.6,441.6014,280.2745,65.63437,54.48887
343239.3,441.1353,280.3953,65.61162,54.50055
343259.5,440.3941,280.6833,65.57536,54.52834
343275.5,439.734,281.0238,65.54299,54.56117
343292.3,438.9055,281.3478,65.50224,54.59235
343306.5,437.7959,281.4471,65.44747,54.60189
343327.3,436.7749,281.5106,65.39687,54.608
343339.7,435.0839,281.5581,65.31264,54.61257
343365.3,434.2727,281.6329,65.27203,54.61975
343375.4,433.2759,281.7042,65.22197,54.6266
343390.3,432.1894,281.8309,65.16718,54.63876
343406.8,431.3674,282.0358,65.12559,54.65841
343423.1,430.5219,282.3333,65.08266,54.6869
343439.9,429.7483,282.6363,65.04326,54.71589
343456,428.9394,282.9238,65.00195,54.74335
343475.5,428.1781,283.0316,64.96294,54.75364
343492.8,427.6843,283.1693,64.93758,54.76678
343508.2,427.0591,283.4507,64.9054,54.79359
343524.1,426.1533,283.655,64.85864,54.81303
343543.7,425.3345,283.6481,64.81624,54.81237
343559.7,424.6594,283.736,64.78117,54.82073
343574.7,423.5692,284.0876,64.72436,54.85414
343594.8,422.5895,284.3902,64.6731,54.88285
343610.9,421.2901,284.793,64.6048,54.92099
343624.6,420.1813,285.0657,64.54625,54.94678
343642.4,419.1176,285.1829,64.48985,54.95785
343662.3,418.1854,285.3574,64.44022,54.97433
343676.2,417.1182,285.5489,64.38319,54.99239
343693.6,416.2242,285.5648,64.33524,54.99389
343711.6,415.7539,285.6664,64.30994,55.00347
343729.9,415.4036,285.8234,64.29107,55.01825
343746.1,414.9719,285.9626,64.26778,55.03136
343760.8,414.3445,285.8955,64.23386,55.02505
343777,413.7692,285.7361,64.20267,55.01004
343795.4,413.3026,285.5659,64.17734,54.99399
343812.5,413.005,285.5956,64.16116,54.9968
343827.1,412.598,285.5544,64.13898,54.99291
343844.1,411.933,285.3663,64.10269,54.97517
343865.7,411.6565,285.2153,64.08757,54.96092
343878.6,411.2935,285.0339,64.0677,54.94378
343893.1,410.8158,284.9182,64.0415,54.93284
343912.4,410.3831,284.8335,64.01773,54.92483
343927.7,410.0443,284.7047,63.99909,54.91264
343944.3,409.7814,284.5052,63.98461,54.89375
343962.7,409.6815,284.3854,63.9791,54.88239
343977.9,409.5215,284.2062,63.97028,54.86539
343994.7,409.3698,284.1284,63.96191,54.85801
344011.5,409.3823,284.1561,63.9626,54.86064
344027.9,409.3848,284.1793,63.96274,54.86284
344045.8,409.3296,283.9412,63.95969,54.84024
344061.7,409.0694,283.6427,63.94532,54.81186
344080,408.8818,283.4834,63.93494,54.7967
344093.8,408.7693,283.3384,63.92872,54.78289
344110.2,408.7791,283.1373,63.92926,54.76372
344130.4,408.7793,282.8967,63.92927,54.74076
344145.4,408.7584,282.7687,63.92812,54.72855
344162.2,408.8158,282.6606,63.93129,54.71821
344179.1,408.9213,282.6079,63.93713,54.71317
344194.1,408.9433,282.3701,63.93834,54.69043
344217.3,408.868,282.2314,63.93418,54.67715
344229.5,408.7421,282.0319,63.92721,54.65804
344246.7,408.7358,281.845,63.92686,54.64011
344261.1,408.8711,282.0759,63.93435,54.66225
344278.2,409.018,282.1206,63.94248,54.66654
344293.6,409.0225,282.0602,63.94273,54.66075
344310.8,408.8938,281.9481,63.9356,54.65
344328,408.7994,281.7721,63.93039,54.63311
344347.3,408.696,281.6568,63.92466,54.62205
344364.6,408.6155,281.5093,63.92021,54.60788
344376.7,408.479,281.4147,63.91265,54.59879
344395.8,408.2085,281.1868,63.89766,54.57686
344413,407.8638,280.8736,63.87852,54.5467
344430.8,407.5055,280.743,63.85862,54.53411
344446.8,406.9335,280.3853,63.82677,54.49958
344463,406.2725,279.9546,63.78988,54.45793
344478.7,405.5165,279.4737,63.74757,54.41132
344495.3,404.7062,279.0379,63.70208,54.369
344513.4,404.0051,278.7351,63.6626,54.33954
344529,403.1033,278.5085,63.61166,54.31746
344545.1,402.3273,278.2974,63.56768,54.29687
344560.8,401.5275,277.9908,63.5222,54.26694
344580.2,400.8887,277.7079,63.48578,54.23928
344596.4,400.2284,277.4388,63.44803,54.21294
344612.8,399.2538,277.2157,63.39213,54.19106
344632.2,398.4805,277.1464,63.34762,54.18426
344647,397.8081,277.0776,63.30881,54.17751
344664.8,397.2319,276.9831,63.27547,54.16824
344680.6,396.8171,276.757,63.25142,54.14603
344696,396.3613,276.6218,63.22494,54.13274
344712.8,396.0388,276.4872,63.20618,54.1195
344729.6,395.6655,276.4048,63.18443,54.11139
344746.8,395.4001,276.2643,63.16895,54.09755
344763.5,395.0468,276.1398,63.14832,54.08528
344779.4,394.5799,276.0606,63.121,54.07747
344794.9,394.249,275.8618,63.10161,54.05786
344812.8,394.1664,275.713,63.09676,54.04317
344830.3,394.256,275.6151,63.10202,54.0335
344845.9,394.2236,275.4173,63.10012,54.01394
344864.5,394.3129,275.3299,63.10535,54.0053
344880.5,394.4803,275.1382,63.11517,53.98631
344898,394.6761,275.0225,63.12663,53.97486
344912.3,394.8934,274.8452,63.13934,53.95728
344929,395.2551,274.8048,63.16048,53.95327
344946.6,395.5088,274.7555,63.17529,53.94838
344964.7,395.7501,274.7111,63.18936,53.94398
344979.5,396.0673,274.7277,63.20784,53.94562
344995.2,396.4254,274.7237,63.22866,53.94522
345012.5,396.6441,274.6074,63.24137,53.93368
345029.8,396.8297,274.5377,63.25215,53.92675
345046.7,397.0081,274.5076,63.26249,53.92377
345063.6,397.2343,274.4636,63.2756,53.9194
345080.1,397.5237,274.3441,63.29236,53.90752
345097.2,397.8347,274.2478,63.31035,53.89794
345113.3,398.1475,274.2917,63.32841,53.90231
345130.1,398.3125,274.3234,63.33794,53.90546
345147.2,398.3638,274.2991,63.3409,53.90305
345164.2,398.5779,274.4759,63.35323,53.92062
345180.3,398.9239,274.5683,63.37316,53.92979
345201.8,399.1287,274.6832,63.38494,53.9412
345216.7,399.1725,274.8127,63.38746,53.95406
345232.6,399.1285,274.8777,63.38493,53.9605
345249.3,399.2682,275.0394,63.39296,53.97653
345264.2,399.6163,275.2205,63.41294,53.99446
345281.3,399.9096,275.2826,63.42977,54.00062
345298.4,400.0943,275.3489,63.44035,54.00718
345314.3,400.242,275.3708,63.44881,54.00934
345331.6,400.4741,275.5718,63.46209,54.02922
345348.5,400.7007,275.7768,63.47504,54.04947
345365.8,400.8163,275.7632,63.48164,54.04813
345382.3,400.9088,275.7083,63.48692,54.04271
345397.9,401.1422,275.5499,63.50024,54.02706
345423.8,401.3345,275.6583,63.5112,54.03777
345432.6,401.4916,275.687,63.52016,54.0406
345447.9,401.6779,275.6764,63.53076,54.03955
345468.7,401.8728,275.6937,63.54185,54.04127
345481.5,402.1295,275.6806,63.55644,54.03997
345502.6,402.0217,275.4705,63.55032,54.0192
345518.8,402.2389,275.441,63.56266,54.01629
345535.7,402.4538,275.4434,63.57485,54.01652
345559.1,402.6985,275.4058,63.58873,54.0128
345568.9,402.8677,275.3248,63.59832,54.0048
345586.4,403.0729,275.2932,63.60994,54.00166
345603,403.2985,275.3337,63.6227,54.00567
345619.3,403.5813,275.4425,63.63868,54.01644
345634.7,403.9843,275.5241,63.66143,54.0245
345653.7,404.5039,275.522,63.6907,54.0243
345670.9,404.8567,275.6076,63.71054,54.03276
345687.2,405.1824,275.5605,63.72883,54.0281
345703.2,405.3843,275.3932,63.74016,54.01156
345719.5,405.6791,275.3502,63.75668,54.00731
345736.8,406.099,275.3091,63.78018,54.00323
345756.4,406.4014,275.25,63.79708,53.99739
345772.4,406.4222,275.0343,63.79824,53.97602
345788.9,406.4068,274.8201,63.79738,53.95479
345804.6,406.4275,274.6397,63.79854,53.93689
345819.3,406.4724,274.5521,63.80105,53.92818
345833.8,406.6005,274.549,63.8082,53.92788
345851.3,406.6418,274.4923,63.8105,53.92225
345868.4,406.6188,274.4047,63.80922,53.91355
345888.7,406.6253,274.2712,63.80958,53.90027
345901.5,406.6147,274.2297,63.80899,53.89614
345916.7,406.5915,274.2906,63.8077,53.9022
345936.2,406.4047,274.404,63.79726,53.91347
345952.3,405.9264,274.2496,63.77052,53.89812
345970.4,405.4092,274.0789,63.74155,53.88115
345985.4,404.9329,273.9813,63.71482,53.87142
346001.8,404.4475,273.8866,63.68752,53.86199
346018.7,403.8775,273.708,63.6554,53.84419
346034.3,403.0486,273.5616,63.60856,53.82958
346052.4,402.4431,273.3249,63.57425,53.80595
346069.6,402.0208,273.2487,63.55027,53.79834
346093.8,401.8396,273.1928,63.53996,53.79275
