Time Stamp(ms),Intersection,,Angle,
,x,y,x,y
204638.2,306.0862,243.0973,56.83897,50.55533
204649,306.0652,243.0685,56.83717,50.552
204660.5,306.0392,243.0413,56.83494,50.54885
204678.4,306.0904,243.1505,56.83933,50.56147
204695.3,306.1275,243.1981,56.84251,50.56698
204714.9,306.1253,243.194,56.84232,50.5665
204728.9,306.1532,243.1867,56.84471,50.56566
204743.5,306.2143,243.2375,56.84995,50.57153
204769.2,306.2456,243.2788,56.85263,50.5763
204788.8,306.2912,243.2482,56.85653,50.57277
204806.7,306.3283,243.3685,56.85971,50.58666
204820.2,306.3495,243.4412,56.86152,50.59506
204830,306.3866,243.4852,56.8647,50.60015
204842.8,306.4044,243.5601,56.86623,50.60878
204860.4,306.3587,243.7023,56.86231,50.62519
204878,306.3144,243.7174,56.85852,50.62692
204892.6,306.2317,243.6875,56.85144,50.62348
204915.5,306.1909,243.7101,56.84795,50.62608
204930.2,306.1283,243.7189,56.84258,50.6271
204948.8,306.0039,243.6983,56.83191,50.62473
204965.1,305.9215,243.6973,56.82484,50.62461
204977.2,305.7903,243.6776,56.81358,50.62234
204993.1,305.6256,243.6427,56.79945,50.61831
205010.5,305.4571,243.6998,56.78497,50.6249
205026.9,305.295,243.7404,56.77103,50.62958
205043.5,305.1596,243.7134,56.75938,50.62646
205059.2,305.1002,243.6961,56.75426,50.62447
205076.2,305.0236,243.7656,56.74766,50.63248
205093.4,304.9603,243.8448,56.74221,50.64161
205109.7,304.8359,243.7713,56.73149,50.63314
205126.7,304.744,243.7027,56.72357,50.62523
205143.5,304.5992,243.5477,56.71107,50.60735
205162.8,304.2256,243.4633,56.67881,50.59761
205179,303.7167,243.2903,56.63476,50.57764
205196.3,303.0718,243.0906,56.57879,50.55455
205220.2,302.0215,242.807,56.48729,50.52173
205233.2,300.8965,242.4331,56.38879,50.4784
205244.6,299.4959,242.0181,56.26545,50.4302
205261.6,297.6567,241.5576,56.10226,50.37661
205278.4,295.5683,241.118,55.91526,50.32534
205293.8,292.9203,240.5312,55.67553,50.25671
205311.2,289.5489,239.7205,55.36601,50.16159
205328.5,286.1057,238.9471,55.04483,50.07049
205347.9,282.8766,238.2645,54.73885,49.9898
205363.7,278.7423,237.2469,54.34023,49.869
205388.4,275.0743,236.269,53.97999,49.75232
205397.7,272.0571,235.5755,53.67891,49.66925
205411.7,268.1207,234.8085,53.27953,49.57705
205429.9,264.4315,234.1511,52.89835,49.49773
205445.3,260.5716,233.4289,52.4922,49.4103
205463.8,256.8899,232.79,52.09768,49.3327
205480.5,253.169,232.2911,51.69176,49.27192
205496.3,249.0452,231.639,51.2332,49.19227
205514,245.476,230.875,50.8288,49.09861
205529,241.719,230.0407,50.3954,48.99593
205544.6,237.8039,229.3316,49.93519,48.90833
205561.9,233.754,228.7927,49.4497,48.84154
205580,230.3174,228.4218,49.03004,48.79548
205594.5,226.2169,227.8033,48.51987,48.71847
205612.7,221.963,227.1719,47.97953,48.63962
205630.2,217.8583,226.6326,47.4472,48.57206
205651.5,214.4434,226.2088,46.99596,48.51886
205667,211.4678,225.709,46.59644,48.45596
205679.8,209.0064,225.1596,46.26146,48.38663
205698.7,205.4569,224.3858,45.77108,48.28867
205714.8,202.2694,224.0679,45.32323,48.24833
205730.8,199.4604,224.0146,44.9226,48.24156
205746.4,196.972,223.901,44.56297,48.22712
205763.6,194.5287,223.6685,44.20547,48.19754
205781.7,192.3799,223.2364,43.88744,48.14248
205794.9,190.7962,222.8839,43.65085,48.09747
205811.4,189.0005,222.7055,43.38031,48.07468
205830.5,187.6288,222.4665,43.17203,48.04408
205849.4,186.2576,221.9146,42.96237,47.97332
205871.8,184.44,221.0032,42.68225,47.85603
205886,183.104,220.5664,42.47472,47.79963
205899.8,182.3561,220.4461,42.35796,47.78408
205914.5,181.9605,220.3542,42.29601,47.77219
205932.8,181.7691,219.9754,42.26598,47.72312
205949.6,181.6754,219.6085,42.25129,47.67551
205967.1,181.4581,219.3066,42.21716,47.63627
205983.3,181.3049,219.019,42.19308,47.59884
206000.3,181.2716,218.6716,42.18784,47.55355
206015.8,181.4293,218.2358,42.21264,47.49661
206032.7,181.6368,217.7497,42.24523,47.43297
206049.2,181.8615,217.4106,42.28048,47.38847
206067.8,182.1449,217.2357,42.32489,47.3655
206083.5,182.4266,217.0009,42.36897,47.33462
206099.9,182.6452,216.8463,42.40314,47.31428
206116,182.9461,216.7175,42.45012,47.29731
206133.7,183.5859,216.6805,42.54974,47.29243
206153,184.3168,216.6222,42.66316,47.28474
206167.9,184.8413,216.5318,42.74432,47.27282
206183.7,184.96,216.39,42.76265,47.25412
206200.9,184.7754,216.3902,42.73413,47.25415
206216.9,184.8702,216.3932,42.74879,47.25455
206235,185.0554,216.3792,42.77737,47.2527
206253.2,185.4798,216.2006,42.84282,47.22911
206270,185.7324,216.003,42.88168,47.203
206285.1,185.8412,215.7748,42.89842,47.1728
206299.5,186.0047,215.4891,42.92355,47.13495
206315.8,186.3371,215.2982,42.97456,47.10963
206334.7,186.8888,215.1262,43.05906,47.0868
206351.1,187.4329,214.889,43.14216,47.05527
206371.6,187.8321,214.6406,43.20298,47.02222
206387,188.2053,214.2883,43.25974,46.97528
206402,188.6954,213.7346,43.33411,46.90133
206418.7,189.006,213.2335,43.38115,46.83423
206435,188.9293,212.4213,43.36954,46.72512
206454.6,189.0082,211.9267,43.38148,46.65845
206469.7,189.1405,211.3584,43.40149,46.58165
206486.3,189.3783,210.8574,43.43744,46.51375
206502.3,189.5793,210.0108,43.46778,46.39865
206518.5,189.7966,209.0079,43.50055,46.26167
206533.7,190.2261,208.1651,43.56523,46.14601
206550.9,190.9659,207.105,43.6763,45.99985
206570.3,191.5175,205.8146,43.75884,45.82089
206585.9,191.8501,204.1123,43.80851,45.58302
206600.9,191.9773,202.2529,43.82748,45.32089
206617.1,192.133,200.9705,43.85069,45.13867
206632.9,192.321,199.4578,43.87867,44.92223
206650.9,192.222,196.7845,43.86394,44.53569
206672.2,191.8866,194.8307,43.81395,44.2499
206684.4,191.6371,192.933,43.77671,43.96964
206699.9,191.8277,191.3585,43.80516,43.73507
206718,192.1426,189.9561,43.85212,43.52458
206737.2,192.5202,188.6636,43.90831,43.3293
206754.3,192.8022,187.3789,43.95021,43.13392
206771.1,193.1241,186.2539,43.99798,42.9618
206785.4,193.5699,184.9707,44.06399,42.7643
206803.8,194.1651,184.071,44.1519,42.62506
206820.8,194.8965,183.3599,44.25957,42.51458
206836.7,195.54,182.8324,44.35398,42.43237
206853,196.181,182.1691,44.44771,42.32868
206872.6,196.8439,181.8129,44.54434,42.27286
206884,197.6934,181.4664,44.66769,42.21846
206904.7,198.4437,181.3339,44.7762,42.19763
206916.7,198.7829,181.1906,44.82513,42.17511
206933.2,198.8774,181.1514,44.83875,42.16893
206951.6,198.8904,181.492,44.84062,42.22249
206970.2,199.3228,181.9168,44.90284,42.28915
206985.6,199.8649,182.4174,44.98064,42.36753
207003.5,200.4316,183.2765,45.06176,42.5016
207019.7,201.0116,184.1549,45.14453,42.63808
207035,201.5879,184.9138,45.22654,42.75551
207053.5,202.0813,185.3975,45.29659,42.83014
207068,202.5532,185.9202,45.3634,42.91056
207087,203.1758,186.6335,45.45131,43.01999
207104,203.7762,187.2744,45.53583,43.11797
207123.2,204.3116,187.7736,45.61099,43.19408
207137.6,204.9495,188.2759,45.70026,43.27046
207154.5,205.7239,189.0155,45.80827,43.3826
207172.8,206.8137,189.817,45.95956,43.50363
207190,208.0771,190.752,46.13391,43.64422
207205.9,209.013,191.6837,46.26237,43.78367
207222.1,209.7625,192.2272,46.36481,43.86472
207241.4,210.5965,192.326,46.47834,43.87942
207257.3,211.7075,192.3635,46.62885,43.885
207271.6,213.5121,192.7703,46.87156,43.94548
207287,215.2358,193.2609,47.10135,44.01825
207303.1,217.3478,193.6946,47.38023,44.08243
207320.5,220.3262,194.3412,47.76855,44.17786
207337.2,224.3512,195.1285,48.28428,44.29364
207354.8,228.0627,195.6989,48.7508,44.37724
207370,232.104,196.6069,49.2491,44.50983
207387.1,236.1672,198.0288,49.74015,44.71625
207405.2,239.828,199.2885,50.17422,44.8979
207422,244.1878,200.1783,50.6811,45.02552
207442.5,247.7209,200.6803,51.08397,45.09728
207457.2,250.9388,201.1415,51.4449,45.16304
207470.3,255.5438,201.7791,51.95168,45.2537
207495.4,259.0225,202.3922,52.32706,45.34062
207505.6,262.6357,203.1024,52.71033,45.44096
207522.3,266.0102,203.6965,53.06229,45.52462
207537.1,269.3288,204.1416,53.40291,45.58714
207552.5,273.6133,204.4022,53.83474,45.62367
207570.4,277.9453,204.5665,54.2625,45.6467
207589.5,282.1615,204.7507,54.67046,45.67247
207609.1,285.7875,204.6823,55.01488,45.6629
207624.1,289.5627,204.5315,55.36729,45.64179
207641.2,292.8491,204.2747,55.66904,45.6058
207655.8,297.0766,203.2676,56.05049,45.46425
207672.8,301.2332,202.0262,56.41833,45.28877
207690.1,304.7051,200.5852,56.72021,45.0837
207705.9,308.4849,198.5122,57.04345,44.78609
207722.2,312.2724,196.7539,57.3618,44.53123
207738.6,315.9886,195.3599,57.66888,44.32758
207755.3,319.818,194.0088,57.97997,44.12885
207773.2,323.326,192.6384,58.26028,43.92588
207789.6,326.6622,191.3309,58.52281,43.73095
207806.8,329.7307,190.2034,58.76086,43.56182
207823.8,332.6401,189.3382,58.98359,43.43139
207840.5,335.6245,188.484,59.20911,43.30205
207856.7,338.536,187.8233,59.4263,43.20165
207872.2,342.094,187.3187,59.68796,43.12474
207889.9,345.1838,187.0562,59.91193,43.08464
207906.8,348.0184,187.0911,60.11478,43.08998
207924.1,350.6808,187.1843,60.30305,43.10422
207941.1,353.1091,187.6158,60.47291,43.17004
207958.1,354.9643,187.9152,60.60148,43.21563
207973.5,356.3533,188.3905,60.69709,43.28786
207990.7,357.2213,188.8909,60.75653,43.36372
208006.8,358.3142,189.4207,60.83109,43.44384
208025.5,359.5652,190.0327,60.91599,43.53613
208041.9,360.7974,190.7695,60.99918,43.64685
208056.5,361.7672,191.5348,61.06435,43.76142
208074.4,362.5702,192.3395,61.11811,43.88143
208094.3,363.1728,192.8752,61.15833,43.96105
208107.1,364.2112,193.4047,61.22741,44.03955
208124.5,365.6173,193.9746,61.32046,44.12379
208141.2,366.8897,194.7062,61.40418,44.23159
208159,367.8963,195.4977,61.47011,44.34778
208172.2,368.8593,196.2736,61.53291,44.46123
208192,369.685,196.861,61.58656,44.54682
208207.1,370.6808,197.5426,61.65102,44.64582
208223.8,371.5818,198.3657,61.70911,44.76495
208240.2,372.0929,199.2305,61.74196,44.88956
208258.1,372.4214,199.918,61.76304,44.98825
208275.8,372.7722,200.5333,61.78552,45.07629
208293,373.1605,201.1302,61.81036,45.16144
208307.9,373.5941,201.9854,61.83805,45.28299
208325.7,373.9669,203.129,61.86183,45.44471
208346.1,374.2598,203.9939,61.88048,45.56641
208357.4,374.4854,205.435,61.89483,45.76803
208378.5,375.0806,206.6247,61.93263,45.93338
208394.2,376.1696,208.1761,62.00154,46.14753
208409.7,377.0377,209.581,62.05624,46.34003
208426.3,377.6988,211.0562,62.09777,46.54071
208442.6,378.3969,212.8791,62.14151,46.78667
208458.7,378.9666,214.4321,62.1771,46.99445
208475.5,379.8488,216.3156,62.23206,47.2443
208493.4,380.6721,217.9316,62.28316,47.4568
208512,381.6059,219.3075,62.34092,47.63639
208526.9,382.8397,220.908,62.4169,47.84375
208542.7,384.1302,222.3998,62.49595,48.03554
208563.3,385.3656,223.9404,62.57124,48.23212
208576.1,386.4855,225.1799,62.63916,48.38919
208592.3,388.007,226.6071,62.73095,48.56887
208610,389.3867,227.8424,62.81369,48.72334
208626.2,390.5822,228.9562,62.885,48.86182
208644.2,391.6595,229.8688,62.94898,48.97473
208657.4,392.7221,230.5419,63.0118,49.05767
208672.9,393.9081,231.4223,63.0816,49.16574
208694.2,395.0353,232.1711,63.14764,49.25728
208712.2,396.3433,233.1123,63.22389,49.37187
208733.5,397.5633,234.2312,63.29465,49.5074
208751.6,398.3817,234.9879,63.34192,49.59864
208763.4,399.163,235.7734,63.38691,49.69298
208775.5,399.8862,236.4776,63.42842,49.77726
208791.3,400.523,237.2944,63.46489,49.87465
208809,401.0573,238.0019,63.4954,49.95868
208825.1,401.5714,238.704,63.5247,50.04177
208842.4,402.1692,239.4591,63.5587,50.13084
208859.5,402.5634,240.1062,63.58107,50.20689
208876.9,403.0322,240.6322,63.60763,50.26854
208893.9,403.3122,241.0091,63.62347,50.31261
208908.8,403.614,241.5246,63.64053,50.37276
208929.9,403.8936,241.8994,63.65631,50.4164
208945.6,404.3443,242.1672,63.68171,50.44753
208961.5,404.7441,242.4787,63.70421,50.48369
208981.1,405.0888,242.7378,63.72358,50.51372
208991.7,405.455,243.1167,63.74412,50.55757
209007.8,405.8762,243.6147,63.76771,50.61508
209025.7,406.2557,244.0058,63.78894,50.66014
209042.9,406.6801,244.3431,63.81264,50.69895
209059.3,406.9441,244.6268,63.82736,50.73153
209074.5,407.1859,244.9333,63.84083,50.76669
209091.9,407.3322,245.2399,63.84898,50.80179
209110.2,407.4586,245.5753,63.85601,50.84014
209128.6,407.4168,245.9098,63.85368,50.87832
209145.1,407.5349,246.1903,63.86025,50.91029
209159.1,407.8036,246.4977,63.87518,50.94528
209175.9,407.9875,246.9253,63.8854,50.99386
209193.4,408.0919,247.3704,63.89119,51.04432
209210.8,408.238,247.6905,63.89929,51.08053
209227.1,408.6143,247.9853,63.92014,51.11385
209244.2,408.8569,248.2892,63.93356,51.14813
209262.1,409.0862,248.5195,63.94625,51.17407
209278.4,409.1931,248.6812,63.95215,51.19228
209293.7,409.3164,248.9845,63.95896,51.22638
209312.4,409.5384,249.2708,63.97121,51.25852
209330.5,409.7528,249.5435,63.98304,51.2891
209346.9,409.7596,249.839,63.98341,51.32219
209362.5,409.6889,250.3116,63.97951,51.37501
209385.3,409.6147,250.6809,63.97542,51.41618
209401.9,409.6877,250.9685,63.97945,51.44821
209412.1,409.9452,251.266,63.99363,51.48129
209431.3,410.1789,251.5788,64.0065,51.51602
209445,410.2554,251.9629,64.01071,51.55859
209461.6,410.1455,252.2897,64.00466,51.59475
209478.3,410.0023,252.5154,63.99678,51.61969
209495.2,410.0153,252.7427,63.99749,51.64477
209513,410.0002,253.1523,63.99666,51.68991
209533.5,409.9421,253.5367,63.99347,51.73219
209550.3,409.8296,253.891,63.98727,51.7711
209562.5,409.5959,254.2715,63.97438,51.8128
209578.1,409.2709,254.5908,63.95645,51.84773
209594.8,408.8999,255.0255,63.93594,51.8952
209612.2,408.4947,255.4413,63.91352,51.94052
209629.3,408.1419,255.8775,63.89396,51.98796
209645.7,407.7863,256.1638,63.87422,52.01905
209662.2,407.5124,256.4906,63.859,52.05447
209679,407.1875,256.8863,63.84092,52.09729
209696.3,407.0273,257.1469,63.83199,52.12545
209713,406.9062,257.399,63.82525,52.15266
209730.2,406.8247,257.5869,63.82071,52.17291
209745.8,406.6251,257.8083,63.80957,52.19675
209762.6,406.3339,257.9765,63.79331,52.21485
209779.3,405.9491,258.1502,63.77179,52.23353
209793.9,405.5427,258.1537,63.74903,52.23391
209811.2,405.2446,258.2224,63.73232,52.24128
209828.8,405.0053,258.3219,63.71889,52.25196
209845.1,404.6151,258.4458,63.69695,52.26527
209862.1,404.1088,258.5,63.66844,52.27108
209878.8,403.6846,258.6402,63.64452,52.28611
209895,403.1577,258.6855,63.61474,52.29098
209912.2,402.6471,258.7112,63.58582,52.29372
209928.6,402.1772,258.6994,63.55915,52.29247
209944.7,401.7607,258.6142,63.53547,52.28333
209962.4,401.3547,258.6406,63.51236,52.28616
209979,401.0682,258.7443,63.49602,52.29727
209995,400.6871,259.0295,63.47426,52.32781
210013.2,400.251,259.2177,63.44932,52.34793
210029.9,399.8185,259.3291,63.42455,52.35984
210047.1,399.5041,259.4446,63.40651,52.37218
210068.4,399.2432,259.6083,63.39152,52.38966
210084.7,398.9379,259.9253,63.37396,52.42345
210099.5,398.4471,260.1932,63.3457,52.45198
210113.7,397.7744,260.543,63.30687,52.48916
210131.2,396.8116,260.9483,63.25109,52.53217
210147,396.0646,261.1628,63.20768,52.55489
210166.4,395.1468,261.6736,63.15416,52.60892
210181.5,394.0093,262.2527,63.08755,52.67001
210197.2,392.6578,262.8636,63.00801,52.73428
210214.3,390.7874,263.5807,62.89721,52.80947
210232.3,389.3802,264.2905,62.8133,52.88364
210247.3,387.7556,265.3266,62.71582,52.99145
210263.7,385.6135,266.5644,62.5863,53.11956
210280.5,383.0362,268.0478,62.42896,53.27207
210298.7,380.3763,269.4801,62.26483,53.41831
210313.2,377.1306,271.2189,62.06209,53.59451
210330,374.0284,272.9575,61.86575,53.76922
210348,370.9055,274.7729,61.66553,53.95011
210368,367.7678,276.5298,61.4617,54.12368
210383.2,363.9581,278.792,61.2106,54.34507
210398.4,360.709,280.8737,60.99323,54.54671
210412.3,356.947,283.4255,60.73777,54.79119
210430.4,353.0313,286.0015,60.46749,55.03502
210451.9,349.4352,288.3376,60.21524,55.25361
210466.1,346.692,290.3406,60.02017,55.43914
210480.4,344.1656,292.6693,59.83846,55.65266
210496.7,341.6418,295.0954,59.65493,55.87266
210515,338.4893,298.2939,59.42283,56.15895
210533.1,336.0569,300.527,59.24155,56.35633
210550.1,333.0995,302.8491,59.01851,56.55943
210566,330.8358,304.6826,58.8458,56.71828
210581.7,328.4939,306.7528,58.6653,56.89602
210596.8,326.4218,308.8695,58.50403,57.07603
210613.3,324.4433,310.9177,58.34864,57.24857
210630.9,322.1317,312.8397,58.16534,57.40901
210651,320.1679,314.384,58.00813,57.53692
210667.6,318.4828,315.8461,57.8721,57.6572
210684.5,316.9301,317.6111,57.74586,57.80134
210702.5,315.6038,319.2146,57.63733,57.9313
210714.3,314.2904,320.4505,57.52919,58.03083
210733.9,313.0529,320.9247,57.42672,58.06888
210748.7,311.8493,321.4211,57.32651,58.10861
210766,310.5898,322.0037,57.22105,58.15514
210781.7,309.1324,322.5887,57.09826,58.20173
210797.4,307.8029,323.0093,56.98554,58.23515
210814.5,306.1894,323.434,56.84781,58.26884
210832.8,304.0885,323.9644,56.66695,58.31082
210850.2,302.5762,324.0542,56.53568,58.31792
210865.7,301.0401,323.89,56.40139,58.30494
210902.4,297.2272,323.7126,56.06395,58.2909
210928.1,295.6214,323.5858,55.92004,58.28086
210943.2,294.2285,323.3327,55.79433,58.26081
210955.2,292.8433,323.0819,55.66852,58.24092
210970.2,291.5009,322.8773,55.54581,58.22467
210985.2,290.1613,322.445,55.4226,58.1903
210999.8,288.8273,321.8032,55.29913,58.13913
211015.3,286.897,321.0724,55.11909,58.08071
211035.7,285.0281,320.5557,54.94323,58.03928
211049.7,283.2186,319.8664,54.77147,57.98386
211065.5,280.7154,319.27,54.53144,57.93577
211082.5,277.8197,318.6875,54.25022,57.88869
211099.6,275.2391,318.0646,53.99631,57.8382
211117.8,272.0316,317.1925,53.67635,57.76726
211135.2,268.9258,316.4639,53.36184,57.70778
211149.5,266.3704,315.9444,53.09953,57.66526
211165,263.2581,315.4907,52.77567,57.62803
211181.9,260.3358,315.1991,52.46714,57.60407
211198.1,257.5868,315.0753,52.1729,57.59389
211216.7,254.5963,314.6835,51.84834,57.56162
211233.9,251.3717,314.017,51.49303,57.50661
211251.2,248.2743,313.3479,51.14645,57.4512
211268.9,245.4768,312.5923,50.82889,57.38844
211286.7,243.3657,311.9191,50.58634,57.33233
211301.5,241.3636,311.3442,50.354,57.28429
211316.1,239.479,310.9046,50.13318,57.24747
211332.7,238.2988,310.5909,49.99386,57.22115
211350,237.0045,310.1226,49.84012,57.18177
211367.6,236.228,309.7769,49.74742,57.15266
211390.8,235.3014,309.2295,49.63634,57.10647
211405,234.9664,308.8255,49.59606,57.0723
211415.9,234.8051,308.393,49.57664,57.03566
211431,234.9678,307.9576,49.59622,56.9987
211450.5,235.8315,307.8287,49.69995,56.98774
211464.7,236.243,307.5999,49.74922,56.96827
211481.5,236.5958,307.275,49.79137,56.94059
211499,237.0248,306.9073,49.84255,56.90922
211514.4,237.6538,306.6521,49.91737,56.88742
211532,238.0119,306.4235,49.95986,56.86786
211547.9,238.0693,305.8755,49.96667,56.8209
211568.3,238.0502,305.1855,49.9644,56.76161
211584.5,238.2429,304.3008,49.98723,56.68531
211599.8,238.6114,303.8672,50.03084,56.64779
211615.8,238.8463,303.3606,50.05859,56.60388
211636.6,239.0341,302.6099,50.08075,56.53861
211649.3,239.3294,301.7558,50.11556,56.46408
211665.2,239.9154,300.9199,50.18449,56.39084
211681.5,240.6934,300.3069,50.2757,56.33697
211698,241.3666,299.8243,50.35434,56.29444
211714.5,241.9298,299.3815,50.41993,56.25533
211731.8,242.4158,298.7261,50.47639,56.19732
211748.8,242.8796,298.0664,50.53014,56.13873
211765.2,243.3743,297.2896,50.58733,56.06952
211782.2,243.6614,296.6338,50.62046,56.01089
211798.3,243.9389,295.7472,50.65244,55.93135
211815.3,244.3746,294.8365,50.70257,55.8493
211832.2,244.9269,294.0617,50.76595,55.77923
211849.3,245.4074,293.2194,50.82096,55.70276
211865.7,245.6865,292.3917,50.85284,55.62733
211882.5,245.9673,291.3263,50.88488,55.5298
211899,246.3473,290.4172,50.92817,55.4462
211915.4,246.7137,289.5855,50.96983,55.3694
211933.4,246.9945,288.8352,51.00171,55.29987
211949.6,247.1625,287.7684,51.02077,55.20057
211978.2,247.3494,286.3304,51.04193,55.06594
211988.2,247.6163,285.4664,51.07214,54.98461
212000.3,248.1563,284.495,51.13314,54.89278
212016,248.7485,283.6541,51.19985,54.81295
212034.6,249.1959,282.9831,51.25011,54.74901
212052.4,249.5622,282.0792,51.29119,54.66257
212066.7,249.9451,281.248,51.33406,54.58275
212083.2,250.4268,280.5299,51.38786,54.51355
212100.3,250.9898,279.9371,51.45058,54.45623
212116.7,251.433,279.2975,51.49984,54.39421
212132.8,251.8572,278.536,51.54688,54.32014
212150.3,252.1407,277.8288,51.57827,54.25111
