Time Stamp(ms),Intersection,,Angle,
,x,y,x,y
1461480,306.2505,299.6986,56.85304,56.28335
1461501,306.9178,297.7358,56.91012,56.1093
1461517,306.8651,295.7294,56.90561,55.92975
1461538,307.1426,294.1716,56.9293,55.78919
1461556,308.0095,293.3303,57.0031,55.71284
1461577,308.3014,292.3451,57.02789,55.62307
1461594,307.8714,291.0894,56.99136,55.50805
1461613,307.787,290.1297,56.98419,55.41968
1461630,308.2725,289.8199,57.02543,55.39107
1461649,308.6744,289.7396,57.05951,55.38365
1461669,308.8127,289.5884,57.07122,55.36967
1461689,308.5529,289.2399,57.04921,55.3374
1461709,308.2643,288.8928,57.02474,55.30521
1461729,308.1707,288.9954,57.0168,55.31473
1461747,307.8943,288.9839,56.99331,55.31366
1461765,307.544,288.9503,56.96351,55.31054
1461788,307.1998,288.6389,56.93418,55.28162
1461808,306.8405,288.3933,56.90351,55.2588
1461827,306.677,288.1622,56.88955,55.23728
1461845,306.5904,287.9272,56.88214,55.21538
1461864,306.5159,287.9344,56.87576,55.21605
1461881,306.5794,288.3883,56.8812,55.25833
1461901,306.4343,288.4596,56.86879,55.26496
1461923,305.9296,288.9807,56.82554,55.31337
1461942,305.4177,289.3894,56.78158,55.35125
1461966,304.6356,289.5353,56.71422,55.36476
1461982,303.0604,289.2177,56.5778,55.33535
1461998,300.6458,288.5891,56.36677,55.277
1462014,298.0689,287.5356,56.13895,55.17884
1462035,295.6606,286.6854,55.92356,55.09926
1462055,293.2104,286.2352,55.70195,55.057
1462074,290.0475,285.9041,55.41209,55.02586
1462095,286.1399,285.2026,55.04803,54.95971
1462115,283.382,284.8278,54.78704,54.92429
1462130,279.6192,285.0195,54.42544,54.94242
1462149,275.3702,285.6563,54.00928,55.00251
1462171,271.3699,285.6222,53.60973,54.9993
1462190,267.5984,285.2018,53.22598,54.95964
1462210,263.3468,284.7559,52.78497,54.91749
1462229,259.6176,284.3666,52.39065,54.88062
1462247,256.0446,283.9643,52.0061,54.84243
1462265,251.8948,283.8077,51.55105,54.82755
1462287,248.0908,284.0983,51.12576,54.85515
1462307,244.9438,284.0805,50.76789,54.85347
1462327,242.6039,283.8142,50.4982,54.82817
1462346,239.799,283.541,50.17081,54.80219
1462365,237.0137,283.6824,49.84122,54.81564
1462382,234.2736,283.8792,49.51253,54.83435
1462401,231.663,284.1233,49.1952,54.85753
1462421,229.9325,284.3029,48.98259,54.87457
1462441,228.0578,284.4423,48.75019,54.88779
1462461,225.796,284.6223,48.46691,54.90484
1462479,223.8519,284.7447,48.22087,54.91642
1462498,221.955,284.8283,47.97851,54.92434
1462515,220.2617,284.9135,47.76021,54.93239
1462534,218.6049,284.9856,47.54484,54.93921
1462554,217.1517,284.9368,47.35445,54.93459
1462574,215.7938,285.003,47.17532,54.94085
1462593,214.3486,285.1553,46.98333,54.95525
1462613,213.1728,284.985,46.82609,54.93916
1462631,212.1638,284.6984,46.69043,54.91204
1462650,211.2457,284.4868,46.56639,54.892
1462669,210.2319,283.9579,46.42876,54.84182
1462689,209.4331,283.1789,46.31983,54.76768
1462709,208.9911,282.7621,46.25937,54.72791
1462727,208.8719,282.2675,46.24304,54.6806
1462746,208.6806,281.9408,46.21681,54.6493
1462765,208.4155,281.8011,46.18042,54.6359
1462783,208.5253,281.5916,46.19551,54.61578
1462801,209.2406,280.92,46.29351,54.55117
1462821,209.7648,280.5411,46.36512,54.51462
1462842,209.8254,280.8489,46.37337,54.54432
1462861,210.1171,281.0214,46.41313,54.56094
1462880,211.0236,280.9464,46.5363,54.55371
1462896,211.9302,280.652,46.65892,54.52533
1462917,212.4615,280.3007,46.73052,54.4914
1462934,213.1654,279.8273,46.82509,54.4456
1462953,213.9901,279.457,46.93548,54.40971
1462974,214.5958,279.0887,47.01626,54.37393
1462993,215.2128,278.7166,47.0983,54.33773
1463018,215.8657,278.2461,47.18484,54.29187
1463032,216.7183,277.7086,47.29741,54.23935
1463050,217.0285,276.8529,47.33826,54.15546
1463073,217.1796,275.7498,47.35812,54.04681
1463089,217.6135,274.8041,47.41511,53.95321
1463109,218.2404,273.3353,47.49722,53.80698
1463133,218.7407,271.8821,47.56256,53.66132
1463149,219.1119,270.5426,47.61093,53.52614
1463168,219.7299,268.9276,47.69128,53.36202
1463185,220.4207,266.6254,47.78078,53.12585
1463204,221.4013,263.9648,47.90733,52.84963
1463225,222.6896,261.8833,48.07264,52.63107
1463246,223.8464,260.1649,48.22017,52.44896
1463264,225.0504,258.0319,48.37283,52.22081
1463283,226.3334,255.3995,48.5345,51.93597
1463301,227.3628,253.3387,48.66348,51.71042
1463317,228.6553,251.1333,48.8245,51.46655
1463335,230.096,248.7599,49.00275,51.20113
1463357,231.299,246.9559,49.15063,50.99733
1463376,232.2486,245.4254,49.26674,50.82301
1463395,233.0681,243.7536,49.3665,50.6311
1463416,234.1962,241.621,49.50317,50.384
1463434,235.3237,240.3855,49.63901,50.23965
1463452,237.1202,239.1499,49.8539,50.09441
1463478,237.8886,238.5526,49.94524,50.02389
1463490,238.7461,237.8952,50.04675,49.94602
1463512,239.1888,237.8726,50.09899,49.94334
1463530,239.7986,237.2905,50.17076,49.87417
1463550,240.5744,236.7374,50.26178,49.80828
1463568,241.0258,236.1228,50.31456,49.73484
1463586,241.2519,235.7052,50.34096,49.68481
1463606,241.275,235.4063,50.34365,49.64894
1463626,241.3745,235.4999,50.35527,49.66018
1463646,241.4467,235.6852,50.36369,49.68242
1463667,241.2437,235.622,50.34,49.67483
1463685,240.9593,235.753,50.3068,49.69054
1463703,240.8513,235.8834,50.29418,49.70618
1463724,240.7739,236.2432,50.28512,49.74924
1463746,240.8221,236.8483,50.29076,49.8215
1463767,240.8963,237.2616,50.29943,49.87074
1463784,240.8804,237.4304,50.29757,49.89082
1463801,240.9155,237.3199,50.30167,49.87767
1463821,240.889,237.3455,50.29858,49.88072
1463838,240.9537,237.4474,50.30614,49.89283
1463855,240.9239,237.4325,50.30265,49.89107
1463879,240.857,237.4528,50.29484,49.89348
1463898,240.7579,237.5156,50.28325,49.90095
1463917,240.8163,237.7488,50.29008,49.92865
1463936,241.0371,237.7444,50.31588,49.92813
1463955,241.1556,238.0228,50.32972,49.96116
1463974,241.0662,238.3519,50.31928,50.00013
1463993,240.9877,238.3888,50.31011,50.00451
1464015,241.1116,238.4554,50.32458,50.01239
1464035,241.4724,238.4328,50.36668,50.00972
1464052,241.7833,238.4715,50.40289,50.01429
1464075,242.0365,238.5271,50.43234,50.02086
1464090,242.2958,238.5917,50.46246,50.0285
1464108,242.6226,238.791,50.50037,50.05206
1464128,242.9017,238.8443,50.5327,50.05835
1464147,243.0793,238.8567,50.55325,50.05982
1464169,243.1004,238.8737,50.55569,50.06182
1464191,243.038,239.0392,50.54847,50.08136
1464206,242.9461,239.2141,50.53784,50.10198
1464225,242.9329,239.0283,50.5363,50.08007
1464245,242.8589,238.9145,50.52774,50.06664
1464266,242.6038,238.6749,50.49819,50.03835
1464284,242.4249,238.6454,50.47744,50.03486
1464303,242.3835,238.7201,50.47264,50.04369
1464319,242.3205,238.6425,50.46533,50.03452
1464338,242.2759,238.6499,50.46015,50.03539
1464359,242.1583,238.5612,50.4465,50.0249
1464379,242.0316,238.5723,50.43177,50.02622
1464399,241.9729,238.67,50.42495,50.03776
1464419,241.8394,238.608,50.40942,50.03044
1464437,241.753,238.4942,50.39936,50.01698
1464454,241.6962,238.5376,50.39275,50.02211
1464475,241.6555,238.566,50.38801,50.02546
1464494,241.6548,238.5314,50.38793,50.02137
1464516,241.7295,238.5719,50.39663,50.02617
1464534,241.7953,238.4373,50.40428,50.01025
1464552,241.8065,238.4534,50.40559,50.01216
1464571,241.8078,238.5047,50.40574,50.01822
1464589,241.9465,238.3381,50.42188,49.99851
1464610,242.0844,238.1521,50.43791,49.97648
1464635,242.0269,238.202,50.43122,49.98239
1464650,242.0806,238.4667,50.43747,50.01372
1464669,242.1762,238.5784,50.44857,50.02694
1464690,242.3055,238.4585,50.46358,50.01276
1464706,242.6152,238.252,50.49951,49.98832
1464726,242.9419,238.1035,50.53735,49.97071
1464744,243.3895,238.2526,50.58909,49.98838
1464766,243.7687,238.7649,50.63284,50.04898
1464785,243.9757,239.1797,50.65669,50.09793
1464804,244.3003,239.5683,50.69403,50.1437
1464822,245.0955,240.045,50.78526,50.19971
1464838,246.1872,240.6152,50.90995,50.26655
1464857,247.925,241.689,51.10704,50.39191
1464877,250.0431,243.0817,51.34501,50.55352
1464898,252.7524,244.9088,51.64585,50.76387
1464918,256.3384,247.0079,52.03798,51.00323
1464938,258.9673,248.3077,52.32116,51.15022
1464956,261.3121,249.4717,52.57071,51.28105
1464974,263.5601,250.4452,52.80731,51.38992
1464995,265.4984,251.429,53.00927,51.49939
1465013,267.3203,252.4588,53.19741,51.61344
1465034,268.7216,253.3951,53.34099,51.71663
1465053,269.7067,254.219,53.44135,51.80704
1465071,270.5241,254.8571,53.52427,51.87683
1465090,271.3565,255.5136,53.60838,51.94839
1465108,272.0474,256.411,53.67794,52.04585
1465129,272.4615,257.2631,53.71951,52.138
1465148,272.6432,258.2018,53.73774,52.23907
1465170,272.8543,259.086,53.75888,52.33385
1465187,272.7726,259.7484,53.75071,52.4046
1465209,272.644,260.2166,53.73782,52.45446
1465224,272.0385,260.7642,53.67704,52.51264
1465268,270.4615,261.927,53.51794,52.63568
1465288,269.7822,262.3215,53.44903,52.67727
1465298,269.364,262.53,53.4065,52.6992
1465310,268.5574,262.948,53.32421,52.74314
1465327,267.7809,263.1595,53.24471,52.76533
1465349,267.2517,263.5141,53.19035,52.8025
1465367,266.7783,263.5488,53.14161,52.80613
1465386,266.4939,263.5665,53.11228,52.80798
1465405,266.1674,263.6069,53.07855,52.81221
1465423,265.7227,263.6856,53.03253,52.82045
1465445,265.3242,263.7566,52.99121,52.82787
1465466,264.946,263.4989,52.95192,52.8009
1465486,264.5689,263.1664,52.91266,52.76606
1465504,264.096,262.7136,52.86334,52.71851
1465522,263.5364,262.57,52.80483,52.70341
1465539,262.6014,262.4982,52.70671,52.69586
1465558,262.0942,262.4982,52.65331,52.69586
1465578,261.5733,262.4098,52.59833,52.68655
1465597,260.944,262.2783,52.53171,52.67271
1465617,260.4351,262.277,52.4777,52.67257
1465638,259.9579,262.2738,52.42692,52.67224
1465657,259.7391,262.1535,52.40361,52.65956
1465674,259.6506,261.9063,52.39417,52.6335
1465695,259.6649,261.4838,52.39569,52.58886
1465712,259.6272,261.0005,52.39167,52.53771
1465734,260.0066,260.5077,52.43211,52.4854
1465753,260.8606,260.2157,52.52287,52.45437
1465772,261.4575,260.2422,52.58608,52.45718
1465792,261.5094,260.2688,52.59157,52.46002
1465808,261.2616,260.1106,52.56536,52.44318
1465828,260.9859,260.0249,52.53616,52.43406
1465852,260.7688,259.8229,52.51313,52.41254
1465871,260.4366,259.8239,52.47786,52.41265
1465890,259.9021,259.8147,52.42098,52.41166
1465908,259.5512,259.9262,52.38356,52.42355
1465926,259.2232,260.144,52.34853,52.44674
1465945,259.1275,260.2163,52.33829,52.45443
1465966,259.089,260.2741,52.33417,52.46058
1465986,259.0038,260.5191,52.32507,52.48663
1466005,259.0152,260.6577,52.32628,52.50135
1466029,258.98,260.7621,52.32251,52.51242
1466039,258.8264,260.8029,52.30607,52.51675
1466057,258.6019,260.6692,52.28201,52.50256
1466077,258.5021,260.4509,52.27131,52.47937
1466098,258.2898,260.423,52.24852,52.47641
1466118,257.8939,260.7234,52.20597,52.50832
1466139,257.4225,260.6296,52.1552,52.49836
1466157,257.099,260.6122,52.12029,52.49651
1466175,256.8058,260.6464,52.0886,52.50014
1466194,256.4899,260.7924,52.0544,52.51564
1466217,256.0074,260.7226,52.00207,52.50823
1466236,255.5499,260.6268,51.95234,52.49806
1466255,255.1363,260.7475,51.9073,52.51087
1466279,254.9134,260.8046,51.88297,52.51693
1466291,254.5975,260.6639,51.84846,52.502
1466309,254.2686,260.5328,51.81248,52.48808
1466329,253.9462,260.5095,51.77715,52.4856
1466352,253.4858,260.8648,51.7266,52.52332
1466371,252.9664,260.9348,51.66944,52.53074
1466391,252.4743,261.0055,51.61515,52.53823
1466410,252.0493,261.1892,51.56816,52.55769
1466427,251.3827,261.4605,51.49426,52.58641
1466448,250.6821,261.6027,51.41632,52.60143
1466469,250.0782,261.7702,51.34894,52.61913
1466488,249.4462,261.8228,51.2782,52.62468
1466506,248.7773,261.8861,51.20309,52.63136
1466525,248.1667,261.9569,51.13432,52.63883
1466543,247.6173,261.9752,51.07226,52.64076
1466564,247.1819,261.9839,51.02296,52.64167
1466584,246.7202,262.1321,50.97057,52.65731
1466602,246.0733,262.1348,50.89697,52.65759
1466621,245.9491,262.154,50.8828,52.65961
1466647,245.6929,262.2311,50.85357,52.66774
1466658,245.3816,262.4136,50.81801,52.68695
1466676,245.1398,262.5385,50.79034,52.7001
1466696,245.0277,262.5913,50.7775,52.70565
1466719,244.966,262.5221,50.77044,52.69838
1466736,244.801,262.6369,50.75152,52.71045
1466757,244.521,262.8527,50.71939,52.73313
1466776,244.3421,262.9526,50.69884,52.74362
1466793,244.2504,263.1595,50.68829,52.76533
1466811,244.1344,263.2342,50.67495,52.77316
1466831,244.0512,263.287,50.66538,52.77871
1466852,243.9103,263.5377,50.64915,52.80496
1466872,243.7821,263.7533,50.63438,52.82753
1466892,243.7193,263.7767,50.62714,52.82997
1466912,243.6404,263.8098,50.61804,52.83344
1466926,243.6267,263.7638,50.61646,52.82863
1466945,243.64,263.89,50.618,52.84182
1466966,243.6258,263.9486,50.61636,52.84794
1466985,243.6451,264.0117,50.61858,52.85454
1467005,243.7323,264.445,50.62864,52.89975
1467025,243.7933,264.6027,50.63567,52.91618
1467042,243.8089,265.0195,50.63748,52.95956
1467061,243.7757,265.2446,50.63365,52.98294
1467081,243.8705,265.3303,50.64457,52.99184
1467101,244.2363,265.3627,50.68667,52.9952
1467120,244.6463,265.5856,50.73377,53.01832
1467140,244.859,265.9103,50.75817,53.05196
1467158,245.1176,266.018,50.78779,53.0631
1467176,245.6167,266.057,50.84487,53.06713
1467195,246.1678,266.4116,50.90773,53.10378
1467216,246.5331,266.7917,50.9493,53.14299
1467235,246.8104,267.0971,50.98082,53.17445
1467255,247.2837,267.339,51.0345,53.19933
1467275,247.5571,267.6082,51.06544,53.22699
1467293,247.6373,267.8951,51.07452,53.25642
1467312,247.6783,268.0711,51.07916,53.27446
1467330,247.7616,268.0418,51.08857,53.27146
1467352,247.667,268.2229,51.07788,53.29
1467373,247.5962,268.5807,51.06987,53.3266
1467391,247.6442,268.9334,51.0753,53.36261
1467411,247.5558,269.0762,51.0653,53.37718
1467427,247.5362,269.2518,51.06308,53.39507
1467446,247.6393,269.8873,51.07475,53.45971
1467466,247.735,270.4659,51.08557,53.51838
1467486,247.5984,270.7065,51.07012,53.54273
1467506,247.7024,271.1895,51.08189,53.59153
1467526,247.5723,272.0627,51.06717,53.67947
1467545,247.4787,272.985,51.05658,53.77197
1467563,247.4141,274.256,51.04927,53.89877
1467583,247.226,275.6287,51.02796,54.03484
1467603,246.9517,276.8984,50.99686,54.15992
1467622,246.5797,278.212,50.95461,54.28854
1467641,246.0152,280.4169,50.89035,54.50263
1467659,245.5385,282.7678,50.83594,54.72845
1467678,244.8199,285.4009,50.75368,54.97843
1467696,243.8745,288.4139,50.64503,55.26071
1467719,243.058,291.4438,50.55078,55.54058
1467737,242.1674,294.2507,50.44755,55.79635
1467757,240.6685,297.0143,50.27279,56.04493
1467775,239.2046,299.0704,50.10086,56.22781
1467794,238.3712,300.7816,50.00243,56.3787
1467813,237.691,302.2687,49.92178,56.50887
1467831,237.4461,303.9352,49.89269,56.65368
1467851,238.0293,306.0399,49.96193,56.835
1467871,238.6774,308.0942,50.03863,57.0103
1467891,238.9963,309.3698,50.07629,57.11832
1467909,240.1188,310.4351,50.20837,57.20805
1467927,241.3792,311.4015,50.35581,57.28908
1467946,242.9201,311.8605,50.53483,57.32745
1467962,244.7948,312.5135,50.7508,57.38189
1467983,246.9224,313.4431,50.99352,57.4591
1468003,249.1863,313.5417,51.24905,57.46727
1468022,251.7928,312.9502,51.53975,57.4182
1468042,254.2787,312.5148,51.81359,57.38199
1468061,257.4576,311.9797,52.15898,57.33739
1468080,261.0211,311.4486,52.53989,57.29303
1468097,265.1617,310.622,52.97433,57.22375
1468117,269.5504,309.2469,53.42546,57.10794
1468138,274.2025,308.0267,53.89344,57.00456
1468159,279.5694,307.3165,54.4206,56.94413
1468181,284.5116,306.7297,54.89436,56.89405
1468198,289.0895,305.8582,55.32346,56.81942
1468213,293.858,305.4213,55.76077,56.78189
1468233,297.7151,304.9842,56.10746,56.74427
1468253,301.257,304.6321,56.42041,56.71391
1468272,304.7553,303.6819,56.72454,56.63174
1468291,308.067,302.838,57.00798,56.55846
1468310,310.6898,302.0664,57.22945,56.49122
1468331,312.3511,301.6296,57.36836,56.45304
1468348,313.9263,301.132,57.49911,56.40945
1468368,315.436,300.5705,57.62354,56.36015
1468388,316.3916,300.2103,57.70187,56.32846
1468407,317.0222,299.8529,57.75338,56.29696
1468433,317.4271,299.5631,57.78637,56.27138
1468445,317.7043,299.0517,57.80892,56.22616
1468464,318.1255,298.4118,57.84313,56.16943
1468483,318.5018,298.0723,57.87365,56.13925
1468501,318.6026,297.9355,57.88181,56.12709
1468521,318.6362,297.6547,57.88453,56.10207
1468541,318.8417,297.2639,57.90117,56.06722
1468561,319.0264,297.0384,57.9161,56.04708
1468580,319.2284,297.0547,57.93242,56.04854
1468595,319.3561,297.1937,57.94273,56.06096
1468614,319.1714,296.9092,57.92781,56.03553
1468635,318.7636,296.5775,57.89484,56.00585
1468657,318.5124,296.393,57.8745,55.98932
1468675,318.2334,295.8087,57.85189,55.93687
1468696,317.8953,295.2272,57.82444,55.88455
1468714,317.3789,294.4445,57.78244,55.81388
1468730,316.8872,293.6351,57.74236,55.74054
1468752,316.3191,292.5176,57.69594,55.63882
1468770,315.577,291.3071,57.63512,55.52804
1468792,314.6046,289.9842,57.55512,55.40625
1468811,313.2338,288.1358,57.44174,55.23482
1468829,312.0401,286.0665,57.34243,55.04113
1468847,311.0075,284.0456,57.25609,54.85015
1468865,309.3728,281.6642,57.11857,54.62276
1468886,307.632,279.1671,56.971,54.38155
1468905,306.0146,276.288,56.83283,54.09988
1468925,304.5185,273.2177,56.70411,53.79523
1468944,302.8428,270.264,56.55888,53.49792
1468964,300.852,266.9507,56.38488,53.15938
1468983,299.2364,263.827,56.2425,52.83523
1469001,297.7724,260.6013,56.11256,52.49535
1469023,296.4852,257.7225,55.99758,52.18752
1469042,294.6203,255.0291,55.82978,51.8956
1469062,292.9968,252.5389,55.6825,51.62228
1469081,291.356,249.9747,55.53252,51.33736
1469096,290.1054,248.1282,55.41745,51.12997
1469113,288.4531,245.6486,55.26435,50.84851
1469136,287.1191,243.6678,55.1399,50.62121
1469156,285.8993,242.1162,55.0254,50.4416
1469176,284.6635,241.0347,54.90874,50.3156
1469195,283.4165,239.9446,54.79033,50.18792
1469214,282.2647,238.7441,54.68034,50.04651
1469231,281.131,238.1152,54.5715,49.97211
1469249,279.9272,237.7206,54.45527,49.9253
1469270,278.7401,237.2082,54.34002,49.86438
1469290,277.5316,236.7391,54.22202,49.80848
1469309,276.3222,236.3161,54.10325,49.75796
1469328,275.2175,236.0674,53.99417,49.72821
1469347,274.4001,235.9805,53.91309,49.7178
1469365,273.6687,235.7164,53.84026,49.68615
1469391,273.2631,235.5561,53.79978,49.66692
1469405,273.0652,235.4757,53.77999,49.65728
1469429,272.8276,235.5243,53.75621,49.66311
1469444,272.5265,235.7963,53.72604,49.69574
1469464,271.9599,235.6136,53.66914,49.67383
1469482,271.2868,235.4569,53.60136,49.65502
1469500,270.4707,235.2983,53.51887,49.63596
1469520,269.7214,235.1222,53.44285,49.6148
1469541,269.1839,235.0248,53.38815,49.60308
1469560,268.6437,234.7951,53.33303,49.57542
1469577,268.0765,234.5142,53.27501,49.54156
1469597,267.5965,234.1096,53.22578,49.49271
1469614,267.0258,233.4164,53.16711,49.40878
1469634,266.4325,232.8326,53.10594,49.33788
1469655,265.8926,232.3004,53.05013,49.27305
1469676,265.1937,231.7636,52.97765,49.2075
1469695,264.2936,231.435,52.88396,49.1673
1469714,263.236,230.9803,52.77336,49.11154
1469733,262.2292,230.5515,52.66754,49.05885
1469751,261.3491,230.0904,52.57462,49.00206
1469773,260.2162,229.3047,52.45441,48.90501
1469790,258.8416,228.3936,52.30769,48.79197
1469810,257.5956,227.4066,52.17385,48.66895
1469830,256.451,226.2916,52.05018,48.52925
1469849,255.36,225.1422,51.93167,48.38443
1469867,254.2317,224.1291,51.80843,48.2561
1469885,253.5264,223.2268,51.73106,48.14125
1469908,252.8297,221.9341,51.65437,47.97582
1469927,251.6277,220.4912,51.52144,47.7899
1469946,250.3734,219.3248,51.3819,47.63864
1469966,249.4982,218.6311,51.28403,47.54826
1469984,248.8431,217.8968,51.21048,47.45224
1470000,247.7731,216.4874,51.08987,47.26698
1470021,246.6109,215.2172,50.95815,47.09888
1470041,245.554,214.3268,50.83771,46.98042
1470058,244.8151,213.6887,50.75313,46.89519
1470079,244.5625,213.4986,50.72416,46.86975
1470097,244.2414,213.2071,50.68726,46.83069
1470115,243.9424,213.1484,50.65285,46.82281
1470133,243.4548,213.0799,50.59663,46.81363
1470154,242.9542,212.8328,50.53877,46.78045
1470172,242.9379,212.4975,50.53689,46.73537
1470193,243.084,212.6051,50.55379,46.74984
1470213,243.1907,213.1303,50.56612,46.82039
1470232,243.1331,213.2534,50.55947,46.83689
1470251,243.1843,213.1551,50.56539,46.82371
1470274,243.4007,213.2603,50.59038,46.83783
