Time Stamp(ms),Intersection,,Angle,
,x,y,x,y
574233.6,318.8639,244.1997,57.90296,50.68246
574249.9,318.5298,243.7593,57.87592,50.63175
574264.6,318.2998,242.8631,57.85728,50.52823
574284,318.2719,242.0468,57.85501,50.43354
574298.4,318.4279,240.9146,57.86766,50.30157
574314.9,318.4849,239.7678,57.87228,50.16715
574332.6,318.635,238.6992,57.88443,50.04122
574349.1,318.8145,237.9589,57.89896,49.95358
574368.3,319,237.4671,57.91397,49.89518
574381.4,319.0727,236.8999,57.91984,49.82766
574403.1,319.0008,236.6201,57.91403,49.79427
574416.6,318.852,236.6465,57.902,49.79742
574432,318.4259,237.1803,57.8675,49.86106
574450.8,317.9051,237.5594,57.82524,49.90615
574465.7,317.1184,237.9577,57.76122,49.95344
574484.4,316.3753,238.245,57.70053,49.98749
574498.8,315.5361,238.4552,57.63176,50.01236
574513.9,314.4289,238.8961,57.54062,50.06447
574532.1,313.3693,239.4021,57.45298,50.12413
574548.9,312.138,239.7422,57.3506,50.16414
574564.8,310.6191,239.9486,57.22351,50.1884
574582,309.3175,239.9388,57.1139,50.18724
574599.6,308.1608,239.6966,57.01595,50.15878
574615.3,307.0193,239.5336,56.91878,50.1396
574632.1,305.9683,239.3947,56.82886,50.12325
574650.6,305.2524,238.9791,56.76737,50.07427
574665.8,304.6009,238.479,56.71122,50.01517
574682,304.2172,237.9221,56.67808,49.94921
574698.3,303.8776,237.0504,56.64869,49.84559
574714.4,303.3242,236.0458,56.60072,49.72562
574731.5,302.9491,235.0341,56.56813,49.6042
574749.3,302.8384,234.1591,56.5585,49.4987
574768.1,302.7316,233.3006,56.54921,49.39473
574785.5,302.2534,232.4037,56.50754,49.28566
574799.3,301.5105,231.4686,56.44262,49.17141
574816.8,300.1972,230.1136,56.32731,49.00492
574834.4,298.7652,228.7108,56.20078,48.83138
574851.3,297.1327,227.2897,56.0555,48.65435
574866.2,294.7041,225.6649,55.83735,48.4504
574885.9,292.0874,224.4778,55.59952,48.30035
574902.3,289.6792,223.3385,55.37806,48.1555
574916.4,287.5273,222.1981,55.17807,48.0097
574936.1,285.1519,220.7463,54.95492,47.82287
574951,282.8891,219.2882,54.74004,47.63387
574969.3,280.5995,217.8595,54.52026,47.44735
574985.4,278.205,216.5776,54.28785,47.27886
575002.6,276.227,215.3709,54.09387,47.11928
575016.2,274.5761,214.1073,53.93057,46.95113
575033.6,272.7893,212.6005,53.75238,46.74923
575049.8,270.8837,211.2265,53.56065,46.56378
575066.5,269.2394,210.0513,53.39381,46.40417
575084.8,267.5181,208.6481,53.21773,46.21235
575099.9,266.1196,207.2268,53.07361,46.01669
575115.8,264.8764,205.8049,52.94467,45.81954
575132.8,263.7575,204.5596,52.82797,45.64573
575150.8,262.4743,203.6675,52.69334,45.52055
575166.8,261.1877,202.9618,52.55753,45.42112
575183.9,260.1088,202.474,52.44299,45.35219
575201,259.1636,201.8637,52.34216,45.26572
575218,258.0041,201.0999,52.21782,45.15711
575233.6,256.6047,200.4359,52.06683,45.06237
575251.9,255.4146,200.0328,51.93761,45.0047
575269.5,254.6365,199.7777,51.85273,44.96814
575287.3,254.0247,199.5331,51.78576,44.93305
575302.6,253.4565,199.377,51.72338,44.91063
575317.3,252.7399,199.3054,51.64447,44.90033
575332.4,252.1156,199.5988,51.5755,44.94247
575351.9,251.6809,199.8407,51.52734,44.97717
575368.2,251.1721,199.8918,51.47085,44.98449
575385.6,250.838,200.0107,51.43369,45.00153
575401.9,250.5543,200.2006,51.40207,45.02872
575417.1,250.3539,200.4883,51.37972,45.06987
575438.4,250.2897,200.611,51.37255,45.08739
575453.1,250.2154,200.466,51.36426,45.06668
575469.9,250.3692,200.0153,51.38143,45.00219
575485.6,250.55,199.6,51.40159,44.94264
575503.4,250.7888,199.3087,51.42821,44.90081
575520,250.9809,199.0341,51.4496,44.86132
575535.1,250.9245,198.7887,51.44331,44.82596
575550.8,250.8553,198.6011,51.43561,44.79892
575570.2,250.9228,198.5161,51.44313,44.78666
575585.5,251.11,198.3114,51.46395,44.7571
575605.9,251.1516,198.1275,51.46858,44.73052
575622.9,251.0226,197.9161,51.45423,44.69995
575636.7,250.7475,197.7662,51.42361,44.67824
575651.6,250.4135,197.6966,51.38638,44.66816
575671.1,250.2286,197.6848,51.36573,44.66644
575688.5,250.0898,197.7394,51.35023,44.67436
575703.1,250.0624,197.7716,51.34717,44.67902
575723.5,250.0161,197.7985,51.34199,44.68291
575738.8,249.9352,197.7988,51.33294,44.68296
575754.6,249.8726,197.8333,51.32594,44.68795
575774.2,249.9042,197.8699,51.32948,44.69325
575788.1,249.9938,197.9784,51.3395,44.70896
575806.6,250.044,198.0593,51.34511,44.72066
575821.7,249.9591,198.1232,51.33562,44.7299
575845.2,249.8592,198.1784,51.32445,44.73788
575858.9,249.8808,198.2858,51.32686,44.75341
575880.5,250.0252,198.3445,51.34301,44.76189
575892.3,250.1282,198.4933,51.35452,44.78337
575905.9,250.3391,198.6557,51.37807,44.80679
575920.4,250.6333,198.9841,51.41088,44.85412
575946.3,250.7344,199.1053,51.42215,44.87156
575958.6,250.9331,199.1518,51.44427,44.87825
575970.8,251.1968,199.1881,51.4736,44.88347
575987.3,251.4169,199.1512,51.49805,44.87816
576003,251.7307,199.1338,51.53287,44.87566
576021.8,252.0047,199.1504,51.56322,44.87804
576037.3,252.3026,199.1381,51.59618,44.87628
576053.3,252.6804,199.0967,51.63791,44.87032
576071.3,253.0863,199.0091,51.68265,44.85771
576088.1,253.4582,199.0195,51.72356,44.85921
576104.8,253.8703,199.025,51.76882,44.86
576122,254.4492,199.1134,51.83225,44.87272
576138,255.0203,199.2536,51.89463,44.89288
576154.9,255.586,199.3357,51.95627,44.90469
576171.6,256.1837,199.4261,52.0212,44.91768
576188.1,256.7807,199.5211,52.08588,44.93132
576206.4,257.459,199.642,52.15913,44.94867
576220.8,258.2633,199.6541,52.24567,44.95042
576238.4,259.1543,199.5652,52.34116,44.93765
576254.7,260.3024,199.4471,52.46359,44.92068
576271.4,262.0183,199.2471,52.64531,44.89194
576292.2,263.3314,199.0874,52.78336,44.86898
576306.3,265.7302,198.6483,53.03331,44.80572
576323.5,267.7102,197.9644,53.23746,44.70694
576340,269.4712,197.0703,53.41741,44.57726
576356,270.945,196.6609,53.56684,44.5177
576371.6,272.6287,196.6785,53.73629,44.52025
576390.1,274.0622,197.1498,53.87947,44.58881
576404.9,275.2683,197.5924,53.9992,44.65306
576423.8,276.2134,198.2664,54.09254,44.7506
576437,277.0479,198.9847,54.1746,44.85419
576453.5,277.9624,199.463,54.26416,44.92299
576472.4,278.8902,199.6949,54.35463,44.95627
576489.3,279.8556,199.9371,54.44834,44.99099
576506.1,280.8416,200.2459,54.54361,45.03521
576522.6,281.8452,200.711,54.64013,45.10167
576541.5,282.6093,201.2496,54.71331,45.17844
576555.9,283.0789,201.9798,54.75815,45.28218
576572,283.4217,202.9142,54.79082,45.4144
576596.6,283.8796,203.8264,54.83438,45.54288
576606.9,284.3728,204.6664,54.8812,45.66068
576624.7,284.9628,205.9603,54.93706,45.84115
576640.8,285.3902,206.9767,54.97742,45.98211
576655.9,285.7484,208.5119,55.01119,46.19366
576672.5,286.0361,209.8653,55.03827,46.37881
576689.9,285.9893,210.9381,55.03387,46.5247
576706.4,286.0227,211.8409,55.03701,46.64687
576723.7,286.1472,212.5325,55.04873,46.74008
576738.9,286.3759,213.202,55.07022,46.83001
576755.2,286.7072,214.0131,55.10131,46.93855
576774,287.2386,214.7971,55.15108,47.04305
576790.3,287.8276,215.6423,55.20609,47.15525
576806.6,288.4128,216.6961,55.26061,47.29449
576823.8,288.7538,218.3455,55.29231,47.51096
576840.6,288.7031,220.231,55.2876,47.75624
576856.5,288.2917,222.1479,55.24933,48.00325
576872.5,287.3633,224.315,55.16274,48.2797
576891.2,286.2483,225.783,55.05823,48.46527
576906.5,285.1814,226.8017,54.95771,48.59327
576923.2,284.0169,227.6364,54.84743,48.69765
576938.2,282.775,228.373,54.72915,48.78942
576954.1,281.3335,228.8711,54.59098,48.85128
576972.3,280.144,229.1504,54.47625,48.88589
576988.3,278.9491,229.1677,54.36036,48.88804
577005.8,278.0362,229.3703,54.27137,48.91312
577022.8,277.2563,229.5629,54.19505,48.93694
577040.3,276.4186,229.4356,54.11275,48.9212
577057,275.6318,229.0873,54.03515,48.87807
577073.1,274.7785,228.6994,53.95066,48.82997
577091.1,274.0057,228.2153,53.87386,48.7698
577108.3,273.2641,227.6888,53.79988,48.7042
577126.3,272.4149,227.1949,53.71485,48.64249
577141.4,271.4087,226.8179,53.61364,48.59529
577156.8,270.6102,226.7763,53.53299,48.59008
577171.7,269.7637,226.7146,53.44715,48.58234
577189.6,268.6939,226.464,53.33817,48.5509
577206.8,267.6716,226.2617,53.23349,48.52549
577222.8,267.0792,225.9394,53.17261,48.48497
577240.5,266.7465,225.883,53.13834,48.47787
577257,266.1101,225.8587,53.07262,48.47481
577272.9,265.5459,226.1452,53.0142,48.51086
577291.5,265.3319,226.5584,52.992,48.56276
577307.3,265.1125,226.9168,52.96922,48.60769
577326.3,264.2783,226.9099,52.88237,48.60682
577342.8,263.3472,226.9635,52.78501,48.61353
577358.3,262.5651,227.2267,52.7029,48.64647
577375.1,261.9245,227.72,52.63542,48.70809
577392.6,261.4418,228.2176,52.58442,48.77008
577411.1,260.9318,228.5229,52.53041,48.80804
577425.8,260.4633,228.7892,52.48069,48.84111
577442.9,259.9741,229.1891,52.42865,48.89068
577459.4,259.6362,229.4591,52.39263,48.92411
577473.2,259.099,229.6024,52.33524,48.94183
577497.4,258.5843,229.7132,52.28012,48.95551
577510,258.123,229.9534,52.23061,48.98516
577525.3,257.7635,230.3504,52.19193,49.03409
577542.1,257.4561,230.5078,52.15882,49.05347
577558.8,257.3604,230.4712,52.14849,49.04897
577575.2,257.2499,230.4676,52.13657,49.04852
577594.8,257.1678,230.4342,52.12772,49.04441
577612.8,257.295,230.1905,52.14145,49.0144
577628.3,257.6051,230.0797,52.17487,49.00074
577643.2,257.8054,230.0496,52.19644,48.99703
577662.4,257.8922,230.112,52.20579,49.00473
577678.5,258.0764,230.1738,52.22559,49.01234
577692.8,258.5035,230.047,52.27146,48.9967
577712.3,259.1573,229.8928,52.34148,48.97769
577728.6,259.9044,229.6427,52.42122,48.9468
577748,261.0579,229.3518,52.54379,48.91083
577760.7,262.2501,229.223,52.66974,48.89489
577776.3,263.4187,229.2152,52.7925,48.89392
577792.1,264.9157,229.1443,52.94876,48.88513
577809.8,266.4298,229.1547,53.10566,48.88642
577826,268.2309,229.2276,53.29082,48.89546
577842.3,270.0605,229.2575,53.47728,48.89916
577858.6,272.0289,229.1626,53.67608,48.8874
577876.4,274.4364,229.2171,53.91669,48.89415
577894,276.6784,229.2649,54.13831,48.90007
577909.9,279.1297,229.3453,54.37791,48.91002
577926.8,281.3351,229.3292,54.59114,48.90803
577943.5,283.4016,229.2271,54.78891,48.89539
577960.8,285.8087,229.0759,55.01687,48.87667
577978,288.1048,229.1072,55.23194,48.88054
577994.9,290.4529,229.1953,55.44949,48.89145
578012,292.6696,229.3654,55.65269,48.91251
578027.3,294.8188,229.5728,55.84771,48.93817
578046.6,297.2776,229.9784,56.06844,48.98825
578061.4,299.7343,230.219,56.2865,49.01791
578077.7,302.0832,230.4611,56.49268,49.04773
578093.4,304.6671,230.6973,56.71693,49.07677
578110.1,307.0667,230.9017,56.92282,49.10189
578126.4,309.6854,230.9258,57.14495,49.10485
578144.2,312.1587,230.9771,57.35232,49.11115
578163.1,314.3423,231.0199,57.53348,49.1164
578179.3,315.8994,231.0345,57.66157,49.11819
578193.9,317.7343,231.1697,57.81136,49.13478
578211.5,319.5392,231.2169,57.95749,49.14056
578227.8,321.2307,231.358,58.09338,49.15786
578246.5,322.6089,231.3465,58.20334,49.15645
578263.6,323.7197,231.2544,58.29146,49.14516
578279.9,325.0382,231.1197,58.39551,49.12865
578297.3,326.3156,230.9935,58.49572,49.11316
578313.3,327.4722,230.893,58.58596,49.10082
578328.1,328.5184,230.7041,58.6672,49.07761
578344.6,329.3956,230.5846,58.73502,49.06292
578361.6,330.6291,230.4794,58.82994,49.04998
578377.8,331.6367,230.459,58.9071,49.04747
578398.6,332.5872,230.5477,58.97956,49.05838
578415,333.3413,230.5696,59.03685,49.06107
578429.9,334.1734,230.6598,59.09983,49.07216
578450.1,334.9339,230.6343,59.15719,49.06903
578461.4,335.9265,230.6927,59.23177,49.07621
578478.8,336.7524,230.8171,59.29358,49.0915
578493.8,337.9067,231.0499,59.37959,49.12008
578512.1,338.9469,231.2604,59.45672,49.14589
578529.4,339.9143,231.5484,59.52814,49.18118
578545.7,340.9571,231.8319,59.60479,49.21585
578562.9,341.9915,232.1032,59.68048,49.24899
578578.8,343.0035,232.3421,59.7542,49.27814
578595.4,344.0009,232.5911,59.82655,49.30848
578613.9,344.7597,232.8175,59.88137,49.33604
578630.4,345.3649,233.0012,59.92496,49.35837
578648.5,345.9173,233.0473,59.96466,49.36398
578662.8,346.4116,232.9684,60.0001,49.35439
578678.6,346.8259,232.929,60.02975,49.34959
578695.8,347.2097,232.7707,60.05716,49.33034
578713.5,347.5722,232.668,60.08302,49.31784
578731.4,347.7257,232.6833,60.09395,49.31971
578746.8,347.9789,232.7381,60.11197,49.32637
578765.4,348.1962,232.6768,60.12742,49.31892
578779.9,348.4867,232.6291,60.14806,49.31311
578796.4,348.7076,232.5398,60.16373,49.30223
578812.5,348.8036,232.4329,60.17053,49.28921
578830.1,348.7829,232.3913,60.16906,49.28413
578848.6,348.7614,232.2905,60.16754,49.27185
578865.9,348.6096,232.1947,60.15678,49.26017
578879.5,348.5513,232.0214,60.15264,49.23901
578898.1,348.5494,231.8817,60.15251,49.22195
578914.8,348.6328,231.8949,60.15842,49.22355
578932.5,348.635,232.0475,60.15858,49.24219
578954.4,348.5591,232.1114,60.15319,49.24999
578964.3,348.4826,232.1108,60.14776,49.24992
578983.3,348.3518,232.1362,60.13848,49.25302
578998.7,348.3106,232.1715,60.13555,49.25734
579013.4,348.3247,232.2228,60.13655,49.26359
579031.8,348.3432,232.3317,60.13786,49.27687
579049.8,348.2331,232.4056,60.13005,49.28589
579066.8,348.0972,232.5702,60.12038,49.30594
579083.6,348.0421,232.6864,60.11646,49.32008
579100.8,348.0499,232.8311,60.11702,49.33769
579119,348.2351,232.8812,60.13019,49.34378
579131.4,348.4199,232.6905,60.14331,49.32059
579149.2,348.3942,232.4812,60.14149,49.2951
579165.8,348.1056,232.2334,60.12098,49.26488
579183.8,347.8017,232.0735,60.09936,49.24538
579199.5,347.534,231.9526,60.0803,49.23061
579215.8,347.1255,231.9072,60.05116,49.22505
579232.6,346.3285,231.8384,59.99415,49.21665
579260.8,345.5831,231.7727,59.94066,49.20862
579271.3,345.169,231.693,59.91087,49.19888
579283,344.5436,231.5666,59.86578,49.1834
579299.6,343.9745,231.5889,59.82463,49.18613
579316.6,343.4739,231.5977,59.78836,49.18722
579334.9,342.9963,231.6063,59.75368,49.18826
579350.8,342.4592,231.6259,59.7146,49.19067
579368.2,342.0765,231.6782,59.68669,49.19706
579384.3,341.7673,231.8401,59.66411,49.21686
579400.1,341.469,232.0152,59.6423,49.23825
579418.3,341.291,232.158,59.62926,49.25568
579434.4,341.0576,232.1676,59.61216,49.25686
579453.8,340.9727,232.1811,59.60594,49.2585
579466.9,340.9192,232.1984,59.60201,49.26061
579483.7,340.8567,232.2552,59.59743,49.26754
579499.6,340.7234,232.3153,59.58765,49.27488
579514.8,340.527,232.3729,59.57322,49.2819
579532.3,340.3572,232.3992,59.56074,49.2851
579553.1,340.1983,232.397,59.54905,49.28484
579566.2,339.8962,232.4428,59.52681,49.29042
579582.2,339.573,232.5225,59.50298,49.30013
579598.1,339.2201,232.5583,59.47692,49.30449
579614.4,338.872,232.4829,59.45118,49.29531
579633.1,338.511,232.5015,59.42444,49.29757
579651.2,338.1446,232.6482,59.39726,49.31543
579665.3,337.7239,232.8632,59.36599,49.34159
579682.4,337.3184,233.0716,59.3358,49.36693
579697.9,336.8902,233.1548,59.30387,49.37703
579715.2,336.5065,233.1388,59.2752,49.37509
579733.1,336.1817,233.0998,59.25089,49.37036
579750.4,335.8407,233.1608,59.22534,49.37777
579768.9,335.5046,233.2914,59.20011,49.39361
579785.2,335.1499,233.4386,59.17345,49.41147
579801.9,334.8211,233.569,59.1487,49.42729
579818.4,334.4494,233.7422,59.12067,49.44826
579833.3,333.9774,233.8638,59.08501,49.46298
579850.3,333.4548,233.9566,59.04545,49.47422
579869.1,332.9059,233.7729,59.0038,49.45198
579884.7,332.2209,233.6547,58.95168,49.43767
579901.9,331.4412,233.5038,58.89215,49.41938
579917.2,330.5591,233.3183,58.82457,49.39688
579932.9,329.7711,233.2644,58.76397,49.39034
579949.6,328.9292,233.385,58.69899,49.40498
579966.9,328.1774,233.4647,58.64077,49.41463
579984.3,327.4812,233.4904,58.58667,49.41775
580000.4,326.7863,233.3882,58.53251,49.40536
580016.9,325.9907,233.043,58.47028,49.36345
580035.1,325.172,232.6572,58.40602,49.31653
580052.1,324.2812,232.3609,58.33585,49.28043
580066.6,323.2918,232.1048,58.25757,49.24919
580086.6,322.2079,231.7962,58.17141,49.21149
580102.9,321.3336,231.5104,58.10161,49.17653
580116.1,320.4954,231.1976,58.03444,49.1382
580131.6,319.5154,230.8163,57.95558,49.0914
580149.8,318.534,230.5687,57.87626,49.06097
580166.3,317.6446,230.3803,57.80407,49.03778
580183.1,316.9483,230.3286,57.74734,49.03141
580200.3,316.4093,230.2982,57.70332,49.02767
580216.2,315.9142,230.2182,57.66278,49.01781
580232.6,315.4222,230.1664,57.62241,49.01143
580250.6,314.9412,230.1164,57.58286,49.00527
580268.3,314.5477,230.1073,57.55043,49.00415
580288.3,314.0042,230.2558,57.50555,49.02244
580313.7,313.4424,230.3727,57.45903,49.03685
580328.1,312.9832,230.4522,57.42094,49.04663
580338.2,312.5254,230.3697,57.38287,49.03648
580352.6,311.9176,230.1783,57.33221,49.0129
580370,311.326,230.11,57.28276,49.00447
580386.3,310.6006,230.188,57.22196,49.01409
580401.6,309.8886,230.3118,57.16208,49.02935
580420.6,309.14,230.4576,57.09891,49.04729
580436.6,308.3098,230.7141,57.02859,49.07885
580453.3,307.3758,230.8291,56.94918,49.09297
580467.3,306.7791,230.8269,56.89826,49.0927
580483.8,306.026,230.7131,56.83381,49.07872
580501.1,304.8769,230.6417,56.73502,49.06994
580517.1,303.86,231.0116,56.64717,49.11538
580533.3,302.6026,231.5005,56.53797,49.17532
580551.3,301.4361,231.5128,56.4361,49.17682
580568.1,300.4005,231.3634,56.34521,49.15852
580584.3,299.3917,231.3656,56.25623,49.1588
580601.2,297.9436,231.1893,56.1278,49.13718
580618.5,296.5955,230.9705,56.00746,49.11034
580638.3,295.9869,230.8432,55.95288,49.0947
580651,294.9753,230.717,55.86183,49.0792
580668,294.1945,230.5729,55.79126,49.06148
580684.9,293.4404,230.5421,55.72286,49.05769
580701.3,292.8214,230.4184,55.66653,49.04247
580719,292.3645,230.0004,55.62484,48.99097
580735.1,291.6942,229.8598,55.56353,48.97361
580751.3,290.8578,229.7762,55.48677,48.96329
580773.6,290.3564,229.7125,55.44059,48.95543
580786.6,289.8575,229.5921,55.39455,48.94054
580802.3,289.3014,229.309,55.3431,48.90553
580822.1,288.7427,229.0571,55.29127,48.87433
580845.9,288.0128,228.7502,55.22336,48.83628
580864.7,287.6418,228.6708,55.18875,48.82642
580871.6,287.2001,228.7032,55.14748,48.83044
580885.8,286.4284,228.61,55.07514,48.81886
580903.1,285.6725,228.6615,55.00405,48.82526
580921.8,284.8743,228.5578,54.92868,48.81239
580940.2,284.0942,228.393,54.85477,48.79189
580955.4,283.4264,228.0402,54.79127,48.748
580971.6,282.7422,227.893,54.72601,48.72965
580993.8,281.9877,227.9634,54.6538,48.73843
581009.3,281.2596,228.1244,54.58387,48.75848
581021.9,280.6842,228.2046,54.52844,48.76847
581039.9,280.3154,228.2246,54.49282,48.77095
581055.6,279.8122,228.3107,54.44414,48.78167
581073.3,279.4138,228.3447,54.40551,48.7859
581089.8,278.9063,228.4895,54.3562,48.8039
581109.6,278.5614,228.6655,54.32261,48.82575
581123.9,278.1003,228.9388,54.27763,48.85966
581140.1,277.7707,229.046,54.24542,48.87296
581155.5,277.7304,229.0466,54.24148,48.87303
581172.3,277.7965,229.0328,54.24795,48.87132
581192.2,277.7798,229.023,54.24632,48.87011
581215.4,277.7816,229.0994,54.24649,48.87958
581233.1,277.7191,229.057,54.24038,48.87432
581244.1,277.6656,229.0357,54.23514,48.87168
581256.5,277.5413,229.0053,54.22297,48.86792
581271.8,277.3516,228.9936,54.20438,48.86647
581290.1,277.206,228.9218,54.19012,48.85757
581305.4,277.004,228.635,54.1703,48.82197
581321.6,276.7161,228.4738,54.14201,48.80194
581338.4,276.4106,228.6354,54.11196,48.82201
581354.8,275.9826,228.842,54.06978,48.84766
581372.6,275.6864,228.9187,54.04054,48.85719
581390.8,275.3975,228.7699,54.01199,48.83871
581408.9,275.1667,228.7507,53.98915,48.83633
581425,274.772,228.788,53.95002,48.84097
581441.4,274.1468,228.8727,53.8879,48.85148
581459.5,273.6671,229.0063,53.84011,48.86803
581472.1,273.2904,228.9729,53.8025,48.8639
581489,272.8086,228.985,53.75431,48.8654
581506.5,272.318,229.1051,53.70512,48.88028
581521.3,271.6115,229.2474,53.63408,48.8979
581538.6,271.0121,229.3261,53.57362,48.90765
581555.7,270.3422,229.3989,53.50584,48.91666
581572.7,269.6743,229.3554,53.43806,48.91128
581592.5,268.7628,229.2823,53.3452,48.90223
581609.6,267.8766,229.2418,53.25453,48.89721
581625.2,266.9029,229.2123,53.15445,48.89356
581638.7,265.8087,229.0666,53.04144,48.87551
581655.8,264.9153,228.7712,52.94872,48.83887
581673.1,264.0417,228.6012,52.85767,48.81778
581693,263.2459,228.6985,52.77439,48.82985
581706.6,262.4311,228.8535,52.6888,48.84909
581722.6,261.7566,228.9998,52.61769,48.86723
