Time Stamp(ms),Intersection,,Angle,
,x,y,x,y
1300415,317.7188,245.9256,57.8101,50.88012
1300432,317.7101,245.9487,57.80939,50.88276
1300451,317.7471,245.952,57.8124,50.88314
1300466,317.8214,246.0967,57.81844,50.89963
1300484,317.9432,246.217,57.82833,50.91333
1300503,317.9776,246.2958,57.83113,50.92231
1300517,318.016,246.2562,57.83424,50.91779
1300538,318.0298,246.3019,57.83537,50.923
1300551,318.1167,246.3658,57.84242,50.93027
1300568,318.2187,246.4669,57.8507,50.94178
1300583,318.3954,246.5752,57.86503,50.95409
1300608,318.5825,246.5966,57.88018,50.95652
1300618,318.6747,246.6976,57.88765,50.968
1300633,318.7975,246.8131,57.89759,50.98112
1300650,318.8618,246.9424,57.90279,50.9958
1300666,318.8904,247.0556,57.9051,51.00864
1300684,318.8888,247.1465,57.90497,51.01895
1300700,318.9087,247.2237,57.90658,51.0277
1300720,318.8358,247.2652,57.90068,51.03241
1300736,318.7813,247.3252,57.89627,51.0392
1300752,318.6612,247.4307,57.88655,51.05114
1300770,318.3955,247.3595,57.86503,51.04308
1300789,317.7578,247.2414,57.81327,51.02971
1300803,316.7397,247.0611,57.73032,51.00926
1300821,315.2473,246.8291,57.60804,50.98294
1300841,313.853,246.7605,57.49304,50.97514
1300856,311.8492,246.6329,57.3265,50.96066
1300874,310.0965,246.5076,57.17958,50.9464
1300886,307.9201,246.3001,56.9955,50.92279
1300903,305.7831,246.2568,56.81297,50.91787
1300920,303.382,246.279,56.60574,50.92039
1300935,300.826,246.2368,56.3826,50.91559
1300952,298.1578,246.1976,56.14685,50.91113
1300969,295.4878,246.0338,55.90802,50.89247
1300985,292.6831,245.7001,55.65392,50.85439
1301003,290.0674,245.2404,55.41394,50.80185
1301018,287.39,244.4446,55.16523,50.71061
1301035,284.5964,243.581,54.90239,50.61119
1301053,282.9796,242.1303,54.74868,50.44324
1301070,281.5462,241.0659,54.61142,50.31925
1301087,279.7573,240.1187,54.43882,50.20837
1301104,277.8451,239.48,54.2527,50.1333
1301121,276.203,239.0446,54.09151,50.08199
1301140,274.7561,238.6763,53.94844,50.0385
1301154,273.207,238.4061,53.79417,50.00655
1301172,271.6793,238.049,53.6409,49.96426
1301188,270.0602,237.5888,53.47725,49.90964
1301204,268.6327,237.0607,53.33191,49.84682
1301225,267.5474,236.6166,53.22075,49.79386
1301239,266.5273,236.2387,53.11573,49.74871
1301253,265.2676,235.66,52.98533,49.67939
1301269,263.9087,235.3338,52.84377,49.64024
1301287,262.9238,235.1254,52.7406,49.61518
1301302,262.0776,234.8794,52.65156,49.58558
1301319,261.3903,234.6392,52.57898,49.55664
1301336,260.6242,234.202,52.49779,49.50387
1301355,259.8954,233.6548,52.42027,49.43768
1301375,259.1594,233.1611,52.3417,49.3778
1301395,258.6512,232.7598,52.2873,49.32901
1301405,258.218,232.4034,52.24081,49.28561
1301419,257.6867,231.8732,52.18366,49.2209
1301434,256.887,231.3427,52.09737,49.15598
1301453,255.992,230.7195,52.0004,49.07951
1301469,255.421,230.0296,51.93831,48.99457
1301485,254.9933,229.2377,51.8917,48.89671
1301502,254.5315,228.3174,51.84125,48.7825
1301520,253.8609,227.7624,51.7678,48.71337
1301535,253.0218,227.2187,51.67554,48.64547
1301553,252.3951,226.9189,51.6064,48.60794
1301570,252.1374,226.5002,51.57791,48.55545
1301587,251.8698,225.95,51.54827,48.48629
1301603,251.4985,225.3407,51.50711,48.4095
1301620,251.2068,224.9265,51.47471,48.35716
1301637,251.1031,224.6311,51.46318,48.31977
1301653,251.1272,224.4654,51.46587,48.29877
1301670,251.2396,224.435,51.47836,48.29493
1301687,251.2015,224.345,51.47412,48.2835
1301704,251.268,224.2677,51.48151,48.2737
1301721,251.4574,224.3542,51.50254,48.28468
1301737,251.8184,224.6615,51.54258,48.32362
1301753,252.4695,225.3209,51.61462,48.40701
1301771,253.7861,226.7849,51.75959,48.59116
1301789,255.5218,228.3603,51.94928,48.78783
1301804,258.687,230.6557,52.29113,49.07166
1301823,261.6758,232.9828,52.60915,49.35613
1301838,265.0939,235.6733,52.96729,49.68098
1301852,269.6036,239.3502,53.43087,50.11801
1301871,273.4054,242.5746,53.81399,50.49481
1301887,277.8783,246.7803,54.25594,50.97739
1301905,281.3422,250.4896,54.59181,51.39486
1301920,284.6502,254.5935,54.90748,51.84803
1301936,287.9134,259.424,55.21409,52.36998
1301953,291.0396,263.9924,55.50348,52.85252
1301970,294.6616,268.5204,55.8335,53.32043
1301986,298.6378,272.6726,56.18948,53.74068
1302003,302.8758,276.6255,56.56175,54.1331
1302020,306.8215,279.0071,56.90189,54.366
1302036,310.6835,281.0866,57.22892,54.56722
1302052,315.1045,283.1472,57.59629,54.76466
1302069,319.5914,284.951,57.96171,54.93594
1302086,323.2126,286.6644,58.25129,55.09729
1302103,326.7682,287.5965,58.53109,55.18452
1302119,330.6453,288.6674,58.83119,55.28428
1302135,334.727,289.8609,59.14161,55.39486
1302152,339.0077,291.1291,59.46122,55.51169
1302169,343.2418,292.461,59.77151,55.63366
1302187,346.6386,293.3214,60.01635,55.71204
1302203,349.9721,293.8214,60.25315,55.75744
1302219,352.9586,294.5092,60.46243,55.81974
1302235,356.6858,295.521,60.71988,55.91101
1302253,359.9193,296.6237,60.93994,56.00999
1302272,362.5388,297.8614,61.11601,56.12048
1302288,365.3866,299.3004,61.30523,56.24816
1302307,368.2901,300.9279,61.49582,56.39155
1302325,370.576,302.8435,61.64425,56.55894
1302341,373.1204,304.5901,61.8078,56.71029
1302353,375.9927,306.3937,61.99036,56.86531
1302370,378.577,307.6327,62.15277,56.97106
1302387,380.6802,308.6263,62.28367,57.05543
1302403,382.8612,309.4867,62.41822,57.12819
1302419,385.0819,310.4604,62.55399,57.21018
1302436,387.2478,311.7209,62.68522,57.31579
1302453,389.271,312.8744,62.80677,57.4119
1302469,391.0194,314.1315,62.911,57.51607
1302492,392.5026,315.2162,62.99885,57.60548
1302503,394.3406,316.0971,63.10698,57.67776
1302519,396.6101,316.596,63.2394,57.71858
1302536,399.0982,317.1947,63.38319,57.76744
1302555,400.9738,318.1758,63.49064,57.84721
1302571,402.4892,319.2805,63.57686,57.93663
1302588,403.6636,320.1259,63.64333,58.00474
1302605,405.2503,320.8936,63.73264,58.06639
1302622,406.6709,321.5497,63.81213,58.11889
1302638,407.8085,321.904,63.87545,58.14718
1302654,408.6109,322.4796,63.91996,58.19305
1302675,409.4626,322.9624,63.96703,58.23143
1302694,410.2916,323.1925,64.0127,58.24969
1302709,410.7735,323.2333,64.03918,58.25293
1302726,410.9796,323.3629,64.05049,58.26321
1302742,410.7624,323.254,64.03857,58.25457
1302756,410.4377,322.6395,64.02074,58.20576
1302774,410.622,321.8863,64.03086,58.14577
1302793,410.7382,321.2836,64.03725,58.09761
1302808,410.3709,320.9944,64.01707,58.07446
1302824,410.1657,320.5201,64.00578,58.03642
1302843,410.2098,319.8105,64.0082,57.97936
1302858,410.6626,318.9491,64.0331,57.90985
1302872,410.9162,318.1765,64.04701,57.84727
1302892,410.5453,317.3076,64.02665,57.77664
1302907,410.5993,316.1237,64.02962,57.67995
1302923,410.999,314.6946,64.05156,57.56254
1302941,411.2293,312.8894,64.06418,57.41314
1302956,410.9214,311.3094,64.04729,57.28138
1302974,410.465,309.2595,64.02224,57.109
1302990,410.3056,307.1168,64.01347,56.9271
1303008,410.1414,304.9406,64.00444,56.74052
1303024,409.7481,302.4005,63.98278,56.52036
1303040,409.541,299.8643,63.97136,56.29797
1303057,409.2711,297.2287,63.95646,56.06408
1303074,409.0245,293.9957,63.94283,55.77325
1303091,408.6389,291.0988,63.9215,55.50891
1303115,407.9577,287.8309,63.88374,55.2064
1303127,407.6529,284.9856,63.86681,54.93921
1303142,407.2666,282.2597,63.84532,54.67986
1303155,406.6409,278.9133,63.81045,54.35688
1303173,406.2804,275.6851,63.79032,54.04041
1303191,406.1347,272.501,63.78218,53.72348
1303208,406.0601,270.0896,63.778,53.48024
1303223,405.8353,267.7036,63.76543,53.23678
1303240,405.533,265.264,63.74849,52.98495
1303257,405.3101,262.3347,63.736,52.67865
1303274,405.2923,259.7094,63.735,52.40044
1303290,405.4272,256.7144,63.74257,52.0787
1303309,405.4876,254.4097,63.74595,51.82792
1303323,405.6145,251.9066,63.75306,51.55236
1303340,406.1367,249.193,63.78229,51.24979
1303358,406.5258,247.2057,63.80403,51.02566
1303378,406.7974,245.2211,63.81918,50.79965
1303391,406.968,243.4686,63.82869,50.59822
1303406,407.1889,241.881,63.841,50.41426
1303422,407.6043,240.1167,63.86411,50.20812
1303440,408.4353,238.2906,63.91022,49.99289
1303455,409.0824,236.4045,63.94603,49.76853
1303475,409.3632,235.0675,63.96154,49.60822
1303489,409.6761,233.3978,63.97881,49.40652
1303506,410.2933,231.7644,64.01279,49.2076
1303523,410.9285,230.1395,64.04769,49.00812
1303539,411.2345,228.7345,64.06447,48.83432
1303555,411.0926,227.1954,64.05669,48.64256
1303573,411.1616,225.591,64.06047,48.44109
1303590,411.2435,224.2223,64.06496,48.26793
1303610,411.2865,223.2808,64.06732,48.14814
1303627,411.2579,222.3237,64.06575,48.02579
1303642,411.0089,221.599,64.0521,47.93277
1303658,410.6234,221.0336,64.03094,47.85995
1303674,410.1253,220.4541,64.00356,47.78511
1303695,409.7672,220.2272,63.98383,47.75575
1303709,409.3555,219.9071,63.96112,47.71427
1303725,408.9335,219.6167,63.9378,47.67658
1303742,408.3516,219.2599,63.90559,47.6302
1303758,407.8612,218.8616,63.87838,47.57833
1303774,407.5229,218.6104,63.85958,47.54556
1303790,407.1387,218.483,63.8382,47.52892
1303809,406.9666,218.3594,63.82862,47.51277
1303824,406.7698,218.2832,63.81765,47.50281
1303842,406.5013,218.1454,63.80266,47.48479
1303860,406.2029,218.0353,63.78599,47.47038
1303875,406.1969,217.7123,63.78565,47.42807
1303892,406.2929,217.477,63.79102,47.3972
1303908,406.382,217.3921,63.79599,47.38604
1303925,406.3853,217.1001,63.79618,47.34768
1303941,406.6027,216.6172,63.80832,47.28409
1303961,406.8487,216.3497,63.82204,47.24879
1303978,406.9368,216.2225,63.82695,47.23201
1303991,406.4777,216.2345,63.80134,47.23359
1304009,405.9133,216.2214,63.76979,47.23186
1304028,405.3693,216.1075,63.73932,47.21682
1304044,405.1071,216.1526,63.7246,47.22277
1304059,404.8027,216.3382,63.7075,47.24729
1304077,404.2227,216.5181,63.67486,47.27102
1304094,403.5767,216.4384,63.63842,47.26051
1304111,403.405,216.4174,63.62872,47.25773
1304128,403.2751,216.4668,63.62138,47.26425
1304146,403.0958,216.7745,63.61123,47.30482
1304162,402.7492,217.0294,63.59161,47.33838
1304175,402.2943,217.2754,63.5658,47.37072
1304192,401.9422,217.4002,63.5458,47.38712
1304210,401.5814,217.454,63.52527,47.39418
1304227,401.0647,217.6803,63.49582,47.42387
1304247,400.2629,217.9841,63.45,47.46368
1304264,399.2198,218.2091,63.39017,47.49313
1304277,398.0449,218.3462,63.32249,47.51104
1304294,396.811,218.3629,63.25106,47.51323
1304310,395.0265,218.2425,63.14713,47.49749
1304327,393.1706,218.1025,63.03824,47.47918
1304349,391.6245,217.9327,62.9469,47.45694
1304361,389.7446,217.6957,62.83507,47.42588
1304376,387.1798,217.5092,62.68112,47.40142
1304394,384.7708,217.2675,62.53504,47.36968
1304412,382.5536,216.9894,62.39932,47.33311
1304426,379.7348,216.5862,62.22497,47.28001
1304444,376.7069,216.2098,62.03542,47.23033
1304464,372.6402,215.8542,61.77707,47.18331
1304482,368.7648,215.6608,61.52676,47.1577
1304494,364.5255,215.4761,61.24825,47.13322
1304509,359.0965,215.0661,60.88423,47.07881
1304528,354.8975,214.779,60.59687,47.04064
1304544,350.2556,214.564,60.27313,47.01202
1304561,346.0946,214.422,59.97738,46.9931
1304575,341.2592,214.4113,59.62693,46.99168
1304594,336.3767,214.1901,59.26549,46.96218
1304611,332.49,213.9801,58.97217,46.93414
1304626,327.781,213.7624,58.60998,46.90505
1304643,323.2658,213.7227,58.2555,46.89974
1304659,318.9349,213.5218,57.9087,46.87286
1304676,315.1126,213.3038,57.59696,46.84365
1304691,311.4045,213.0299,57.28933,46.80691
1304708,307.9797,212.7997,57.00057,46.776
1304725,304.7493,212.6358,56.72403,46.75397
1304742,301.4206,212.4503,56.43475,46.72902
1304759,298.7021,212.3277,56.19518,46.71251
1304776,296.2384,212.3042,55.97546,46.70934
1304795,294.1511,212.3343,55.78733,46.71339
1304810,291.9732,212.5305,55.58907,46.73981
1304827,289.7914,212.8249,55.38844,46.7794
1304844,287.6544,212.5929,55.18993,46.7482
1304860,285.8193,213.1776,55.01788,46.82673
1304875,283.4152,213.2343,54.7902,46.83434
1304894,281.4086,213.3676,54.5982,46.85221
1304909,279.3401,213.7472,54.39836,46.90302
1304926,277.6304,214.1091,54.23169,46.95137
1304944,276.3568,214.4852,54.10667,47.00153
1304960,275.121,215.0014,53.98462,47.07022
1304975,273.5888,215.3072,53.8323,47.11082
1304993,272.0483,215.55,53.67803,47.14302
1305011,271.2164,215.8958,53.59425,47.18882
1305025,270.3629,216.3811,53.50795,47.25295
1305047,269.747,216.8467,53.44545,47.31432
1305065,269.0506,217.2011,53.37456,47.36095
1305076,268.2394,217.6034,53.29169,47.41378
1305096,267.608,218.0374,53.22697,47.47065
1305112,267.1735,218.4075,53.1823,47.51905
1305125,266.763,218.6956,53.14003,47.55667
1305141,266.38,219.0014,53.10051,47.59655
1305159,265.8781,219.3227,53.04862,47.63836
1305180,265.3825,219.6388,52.99725,47.67945
1305198,264.9448,219.8256,52.95179,47.70369
1305210,264.7175,219.929,52.92813,47.7171
1305228,264.7185,219.948,52.92825,47.71957
1305245,264.6704,220.2032,52.92323,47.75264
1305262,264.4001,220.4984,52.89507,47.79084
1305275,263.9555,220.7889,52.84866,47.82838
1305292,263.5643,221.0133,52.80775,47.85734
1305309,263.3461,221.1888,52.7849,47.87995
1305326,263.2473,221.2554,52.77454,47.88854
1305343,263.1908,221.5394,52.76862,47.92509
1305363,263.1334,221.8931,52.76259,47.97057
1305380,262.953,222.0997,52.74366,47.99708
1305393,262.7544,222.3843,52.7228,48.03355
1305409,262.5369,222.5487,52.69994,48.05461
1305426,262.2704,222.7375,52.67189,48.07876
1305443,262.1598,223.0394,52.66023,48.11734
1305459,262.1157,223.3549,52.65558,48.15759
1305475,262.1042,223.7048,52.65437,48.20217
1305494,262.2001,224.0354,52.66448,48.24419
1305510,262.2386,224.2837,52.66853,48.27573
1305526,262.2105,224.6524,52.66557,48.32246
1305548,262.1994,224.9482,52.6644,48.35991
1305559,262.2349,225.3864,52.66814,48.41528
1305579,262.3742,225.8728,52.68282,48.47659
1305595,262.5154,226.0356,52.69767,48.49707
1305611,262.4685,226.1944,52.69274,48.51704
1305629,262.1258,226.2374,52.65665,48.52245
1305649,261.9785,226.2757,52.64111,48.52726
1305661,261.8057,226.2675,52.62288,48.52623
1305678,261.6343,226.2545,52.60477,48.5246
1305692,261.3511,226.2817,52.57483,48.52802
1305710,260.8759,226.3011,52.52449,48.53045
1305728,260.6046,226.3496,52.4957,48.53654
1305744,260.5191,226.5234,52.48662,48.55836
1305760,260.6113,226.6651,52.49642,48.57613
1305776,260.5648,226.7549,52.49148,48.58739
1305796,260.5243,226.9028,52.48717,48.60593
1305812,260.615,226.9902,52.49681,48.61687
1305826,260.8053,227.3477,52.517,48.66159
1305844,261.0503,227.7008,52.54298,48.70569
1305861,261.3353,228.2149,52.57315,48.76974
1305880,261.3675,228.6479,52.57656,48.82357
1305899,261.4186,228.926,52.58197,48.85809
1305910,261.6385,229.1697,52.60522,48.88828
1305927,261.8969,229.4827,52.6325,48.92702
1305948,261.9984,229.8407,52.6432,48.97125
1305966,261.9832,230.2214,52.6416,49.01821
1305981,261.856,230.4975,52.62819,49.0522
1305998,261.9129,230.7362,52.63419,49.08156
1306015,262.011,231.0814,52.64454,49.12395
1306034,261.9119,231.1995,52.63408,49.13844
1306047,261.7865,231.3223,52.62085,49.15349
1306063,261.6769,231.4704,52.60927,49.17163
1306080,261.4878,231.6377,52.58928,49.1921
1306097,261.4436,231.7659,52.58461,49.20779
1306114,261.442,232.0559,52.58444,49.24323
1306131,261.3851,232.2314,52.57843,49.26464
1306147,261.2333,232.4762,52.56236,49.29449
1306164,261.0803,232.8015,52.54616,49.3341
1306183,261.0317,233.1517,52.541,49.37666
1306196,261.0011,233.4592,52.53777,49.41397
1306214,260.713,233.8635,52.50721,49.46294
1306233,260.4411,234.1062,52.47834,49.4923
1306248,260.2291,234.4468,52.45579,49.53344
1306264,260.0193,234.6763,52.43346,49.56112
1306279,259.6619,234.9619,52.39537,49.5955
1306295,259.0736,235.1453,52.33253,49.61758
1306313,258.6123,235.3895,52.28312,49.64692
1306330,258.4399,235.7403,52.26464,49.68902
1306346,258.4929,236.2956,52.27032,49.75551
1306364,257.8562,236.478,52.20192,49.77731
1306379,256.7758,236.7513,52.08535,49.80993
1306403,256.091,237.0199,52.01114,49.84195
1306416,255.7397,237.7639,51.97299,49.93044
1306428,255.2918,238.4508,51.92424,50.01184
1306447,254.844,239.0242,51.8754,50.07958
1306461,254.1873,239.6112,51.80357,50.14874
1306479,253.7308,240.7369,51.75352,50.28079
1306503,253.5783,241.6568,51.73677,50.38816
1306515,253.3532,242.6581,51.71202,50.50449
1306529,252.6391,243.3993,51.63334,50.59022
1306546,252.0672,243.9165,51.57014,50.64986
1306563,251.7385,244.6114,51.53373,50.72976
1306578,251.2957,245.7,51.48459,50.85438
1306596,251.0669,246.4567,51.45915,50.94062
1306614,250.9198,246.9495,51.4428,50.99661
1306629,250.9945,247.1596,51.4511,51.02043
1306646,251.2627,247.4625,51.48093,51.05474
1306666,251.6356,247.9288,51.52232,51.10747
1306684,251.826,248.3114,51.54342,51.15063
1306697,251.9056,248.7519,51.55225,51.20023
1306714,251.9929,248.9596,51.56192,51.22359
1306733,252.1516,249.1646,51.57947,51.2466
1306748,252.314,249.4483,51.59743,51.27843
1306764,252.6977,249.5715,51.63981,51.29224
1306782,253.0046,249.6477,51.67365,51.30077
1306797,253.2748,249.6133,51.7034,51.29692
1306814,253.4585,249.7202,51.7236,51.30888
1306829,253.5378,249.8505,51.73232,51.32347
1306847,253.7036,249.9585,51.75053,51.33555
1306862,254.0692,250.0322,51.79063,51.34379
1306879,254.3052,250.1579,51.81648,51.35784
1306895,254.2659,250.2297,51.81218,51.36586
1306912,254.2784,250.2961,51.81355,51.37326
1306929,254.3714,250.3098,51.82373,51.3748
1306948,254.5816,250.1338,51.84673,51.35514
1306966,254.7222,250.0089,51.86209,51.34119
1306983,254.8059,249.863,51.87124,51.32487
1306999,254.8801,249.86,51.87933,51.32454
1307015,255.0042,249.824,51.89288,51.32051
1307031,255.1913,249.8912,51.91328,51.32803
1307048,255.4798,249.8426,51.94472,51.32259
1307064,255.8084,249.8397,51.98045,51.32227
1307081,256.0668,249.7797,52.00852,51.31555
1307097,256.2625,249.7872,52.02975,51.31639
1307115,256.3622,249.6992,52.04055,51.30654
1307132,256.5285,249.774,52.05857,51.31491
1307152,256.8071,249.8092,52.08873,51.31885
1307165,257.0744,249.8031,52.11762,51.31816
1307182,257.2981,249.7113,52.14177,51.3079
1307201,257.4926,249.6246,52.16275,51.29819
1307217,257.8694,249.6129,52.20333,51.29687
1307232,258.3209,249.5995,52.25185,51.29538
1307251,258.6918,249.5216,52.29165,51.28665
1307265,259.1292,249.3456,52.33847,51.26692
1307286,259.4931,249.319,52.37736,51.26394
1307301,259.874,249.436,52.41798,51.27705
1307316,260.1683,249.381,52.44933,51.27089
1307332,260.565,249.2068,52.4915,51.25135
1307350,260.9095,249.089,52.52805,51.23812
1307367,261.2817,249.038,52.56749,51.23239
1307384,261.7384,249.0473,52.61577,51.23344
1307403,262.3123,248.9958,52.6763,51.22765
1307422,262.7329,249.1235,52.72054,51.242
1307434,263.0705,249.162,52.75599,51.24632
1307450,263.4138,249.1349,52.79198,51.24327
1307469,263.6789,249.1573,52.81975,51.24579
1307487,263.9629,249.2689,52.84943,51.25831
1307503,264.3901,249.1478,52.89402,51.24472
1307519,264.702,249.218,52.92653,51.25261
1307533,265.1914,249.2195,52.97741,51.25276
1307551,265.627,249.1614,53.02261,51.24625
1307567,265.9352,249.1617,53.05453,51.24628
1307585,266.13,249.292,53.07468,51.2609
1307602,266.4074,249.4696,53.10334,51.28082
1307624,266.6957,249.6334,53.13309,51.29917
1307634,266.9949,249.6915,53.16393,51.30568
1307651,267.2469,249.5739,53.18986,51.2925
1307669,267.3198,249.5087,53.19735,51.2852
1307686,267.4503,249.5051,53.21077,51.2848
1307702,267.5516,249.5822,53.22117,51.29343
1307721,267.7693,249.6479,53.24352,51.3008
1307735,267.8749,249.6747,53.25435,51.3038
1307753,267.8816,249.6997,53.25503,51.3066
1307767,267.9189,249.6573,53.25887,51.30185
1307784,268.0363,249.6274,53.2709,51.2985
1307803,268.1587,249.6358,53.28343,51.29944
1307818,268.1345,249.6281,53.28095,51.29857
1307834,268.0497,249.6494,53.27226,51.30096
1307852,267.9146,249.657,53.25842,51.30181
1307868,267.7969,249.6729,53.24635,51.3036
1307885,267.7911,249.6373,53.24575,51.29961
1307901,267.8272,249.584,53.24946,51.29364
1307917,267.8533,249.5433,53.25213,51.28908
1307934,267.8689,249.6183,53.25374,51.29748
1307950,267.9685,249.5919,53.26395,51.29453
1307966,268.034,249.6736,53.27066,51.30367
1307986,268.1602,249.7532,53.28358,51.31258
1308001,268.2966,249.9172,53.29754,51.33093
1308017,268.4798,249.8832,53.31629,51.32713
1308033,268.6021,249.8414,53.32879,51.32246
1308051,268.6732,249.8151,53.33605,51.31951
