Time Stamp(ms),Intersection,,Angle,
,x,y,x,y
1263370,315.1463,244.086,57.59974,50.66938
1263389,315.0819,244.0332,57.59443,50.66331
1263405,315,243.953,57.58769,50.65407
1263422,314.815,243.8858,57.57246,50.64632
1263437,314.6985,243.8129,57.56286,50.63793
1263453,314.6826,243.7455,57.56155,50.63017
1263465,314.7031,243.6082,57.56324,50.61433
1263476,314.7571,243.5956,57.56769,50.61288
1263487,314.7267,243.4945,57.56519,50.60122
1263505,314.6081,243.412,57.5554,50.59169
1263522,314.4907,243.3399,57.54573,50.58336
1263538,314.4565,243.2905,57.5429,50.57765
1263555,314.4746,243.2522,57.5444,50.57323
1263571,314.4092,243.3069,57.53901,50.57955
1263593,314.3163,243.1997,57.53133,50.56717
1263606,314.3152,243.1281,57.53124,50.55888
1263623,314.2069,242.9989,57.5223,50.54395
1263640,314.0844,242.8166,57.51218,50.52285
1263655,313.9176,242.7899,57.49839,50.51975
1263674,313.649,242.7506,57.47616,50.5152
1263690,313.4358,242.6909,57.45849,50.50829
1263705,313.1886,242.6109,57.43799,50.49901
1263723,312.7699,242.3931,57.40321,50.47375
1263740,312.1785,242.2622,57.35397,50.45856
1263754,311.4013,241.9712,57.28907,50.42475
1263771,310.2819,241.7316,57.19518,50.39687
1263789,309.2032,241.5257,57.10425,50.37289
1263806,307.658,241.3474,56.97321,50.3521
1263822,306.0322,241.0691,56.83434,50.31963
1263839,304.5219,240.9636,56.70441,50.30729
1263856,302.5042,240.8837,56.5294,50.29796
1263874,300.7429,240.9662,56.37531,50.30761
1263889,298.5599,241.035,56.18257,50.31564
1263906,296.6111,241.1252,56.00886,50.32617
1263923,294.8446,241.2065,55.85003,50.33567
1263939,292.9581,241.2554,55.67898,50.34137
1263954,290.838,241.4705,55.48494,50.36646
1263974,289.1167,241.6314,55.32598,50.3852
1263991,287.6487,242.0484,55.1894,50.43372
1264006,286.2747,242.3663,55.06071,50.47064
1264023,284.8046,242.8446,54.92209,50.52608
1264039,283.3177,243.2807,54.78092,50.57653
1264055,281.8466,243.7008,54.64026,50.62502
1264073,280.7059,243.8712,54.53053,50.64465
1264089,279.6772,244.302,54.43106,50.69422
1264108,278.5624,245.088,54.32271,50.78441
1264124,277.5382,245.8326,54.22266,50.86951
1264141,276.7373,246.9632,54.14409,50.99816
1264156,276.2476,248.3519,54.09591,51.15519
1264173,275.9455,250.042,54.06612,51.34489
1264192,276.0867,252.0034,54.08004,51.56307
1264207,276.4246,254.6118,54.11333,51.85003
1264222,276.5516,258.1878,54.12584,52.23756
1264246,276.7139,260.9396,54.1418,52.53125
1264258,276.8406,264.1991,54.15425,52.8741
1264272,277.0049,268.1277,54.17038,53.28026
1264290,276.9001,272.6315,54.16009,53.73656
1264306,276.1621,277.7203,54.08748,54.24049
1264327,275.3201,282.3947,54.00433,54.69278
1264344,275.1794,286.7791,53.9904,55.10804
1264357,275.2523,290.3339,53.99762,55.43851
1264372,274.8626,294.2595,53.95901,55.79714
1264391,274.2813,297.3384,53.90127,56.07387
1264407,273.5742,300.0804,53.83084,56.31702
1264424,272.9915,302.9648,53.77262,56.56949
1264442,272.4823,305.9186,53.7216,56.8246
1264459,271.7946,308.634,53.65252,57.05608
1264474,270.6936,311.8398,53.54142,57.32572
1264495,269.7681,314.1548,53.44759,57.51799
1264510,269.0122,316.1219,53.37065,57.6798
1264524,268.2546,317.9974,53.29325,57.83274
1264541,267.7755,319.7677,53.24416,57.97591
1264557,267.6231,321.1487,53.22851,58.08681
1264575,266.9825,322.6993,53.16265,58.21053
1264594,265.7353,323.3393,53.03384,58.26133
1264610,264.6837,324.1375,52.92461,58.3245
1264629,264.0755,324.8012,52.8612,58.37685
1264643,264.0867,325.5271,52.86237,58.43393
1264660,264.1288,326.3522,52.86677,58.49858
1264676,264.1523,326.9435,52.86921,58.54477
1264691,264.304,327.3514,52.88505,58.57656
1264711,264.6145,327.6024,52.91741,58.5961
1264726,265.0828,327.9538,52.96613,58.62341
1264745,265.4873,328.187,53.00813,58.64151
1264759,265.6415,328.5188,53.02411,58.66723
1264776,265.9324,328.7455,53.05424,58.68479
1264795,266.2731,328.8792,53.08947,58.69513
1264810,266.4865,329.0916,53.11151,58.71155
1264825,266.6968,329.1323,53.13321,58.71469
1264846,267.0386,329.0902,53.16842,58.71144
1264857,267.3962,329.1813,53.20521,58.71848
1264873,267.833,329.212,53.25005,58.72084
1264894,268.0416,329.226,53.27143,58.72193
1264910,268.0603,329.4216,53.27335,58.73703
1264926,268.2158,329.4208,53.28928,58.73697
1264942,268.3794,329.3526,53.30602,58.7317
1264958,268.5389,329.2858,53.32233,58.72654
1264972,268.5335,329.1643,53.32177,58.71717
1264990,268.3537,329.1556,53.30338,58.71649
1265008,268.2033,329.3041,53.288,58.72796
1265024,268.1881,329.3775,53.28645,58.73362
1265041,268.1116,329.4844,53.27861,58.74187
1265057,267.8095,329.5797,53.24765,58.74922
1265073,267.3375,329.5391,53.19918,58.74609
1265094,266.8609,329.5886,53.15012,58.7499
1265112,266.4394,329.594,53.10665,58.75032
1265126,265.431,329.648,53.00229,58.75449
1265142,264.0786,329.4285,52.86152,58.73756
1265160,262.2708,329.2647,52.67192,58.72492
1265176,259.6715,329.3233,52.3964,58.72944
1265191,256.7589,329.6263,52.08352,58.75281
1265210,254.7092,329.8504,51.86068,58.77008
1265224,251.5489,330.0209,51.51271,58.7832
1265243,248.7122,330.113,51.19577,58.79029
1265259,246.0676,330.1816,50.89631,58.79557
1265276,243.316,330.066,50.5806,58.78667
1265293,240.6808,330.0787,50.27423,58.78765
1265310,238.3241,330.198,49.99684,58.79683
1265326,236.0275,330.3206,49.72343,58.80626
1265343,233.7268,330.5087,49.4464,58.8207
1265359,231.7878,330.6807,49.21047,58.8339
1265374,230.3008,330.6931,49.02798,58.83485
1265392,229.4606,330.6583,48.92429,58.83218
1265410,228.6276,330.2872,48.82106,58.80369
1265435,228.306,330.0163,48.78107,58.78285
1265453,228.1445,329.8453,48.76098,58.76969
1265462,228.4206,329.7675,48.79533,58.76369
1265473,228.6334,329.6426,48.82177,58.75407
1265490,229.0656,329.4994,48.87539,58.74303
1265507,229.3527,329.4821,48.91094,58.74169
1265523,229.3717,329.3792,48.91329,58.73376
1265542,229.1618,329.2932,48.8873,58.72712
1265559,228.8916,329.3286,48.85382,58.72985
1265575,228.7518,329.2837,48.83647,58.72638
1265590,228.877,329.2365,48.852,58.72274
1265608,229.2954,329.136,48.90385,58.71498
1265626,229.607,329.1503,48.94239,58.71608
1265642,229.9877,329.059,48.9894,58.70903
1265656,230.4167,329.0374,49.04226,58.70736
1265676,230.8075,329.0565,49.09032,58.70884
1265691,231.1596,329.1798,49.13354,58.71836
1265707,231.427,329.1025,49.16631,58.71239
1265725,231.5987,329.0956,49.18733,58.71186
1265741,231.6828,329.0272,49.19762,58.70657
1265758,231.7885,328.9715,49.21056,58.70227
1265774,231.8807,329.0245,49.22182,58.70636
1265790,231.9747,329.1852,49.2333,58.71878
1265808,232.1098,329.2608,49.2498,58.72462
1265824,232.1654,329.2708,49.25659,58.72539
1265840,232.3531,329.338,49.27949,58.73058
1265857,232.6336,329.4395,49.31366,58.7384
1265874,233.0645,329.5676,49.36607,58.74829
1265891,233.6586,329.6876,49.43814,58.75753
1265908,234.2584,329.8874,49.51069,58.77293
1265924,235.1056,330.0237,49.6128,58.78342
1265941,236.0527,330.1285,49.72645,58.79148
1265957,237.0686,330.244,49.84776,58.80037
1265973,238.7148,330.3714,50.04305,58.81016
1265991,240.4274,330.2424,50.24456,58.80024
1266008,242.6273,329.8321,50.50092,58.76867
1266024,245.5618,329.2991,50.8386,58.72758
1266042,248.3367,328.9657,51.15349,58.70182
1266057,251.1367,329.0239,51.46692,58.70631
1266074,254.6197,328.9445,51.85089,58.70018
1266092,258.0627,328.8178,52.22411,58.69038
1266108,262.2191,328.5912,52.66648,58.67284
1266125,265.9618,328.4712,53.05729,58.66354
1266143,270.145,328.6586,53.48586,58.67806
1266158,274.197,328.7508,53.89289,58.68519
1266174,278.5529,328.4785,54.32178,58.66411
1266192,283.9782,326.9681,54.84376,58.54669
1266209,288.5609,325.4961,55.27438,58.43149
1266226,292.852,324.5282,55.66931,58.35533
1266247,297.2599,324.2573,56.06686,58.33396
1266263,301.2347,324.4099,56.41846,58.346
1266275,305.3256,324.8545,56.77366,58.38105
1266291,309.423,325.2223,57.12281,58.40998
1266309,313.6626,325.2814,57.47728,58.41462
1266326,317.5347,325.4053,57.79513,58.42436
1266343,321.4325,325.7798,58.10952,58.45375
1266358,325.6723,326.1263,58.44532,58.48091
1266375,329.7279,326.2426,58.76064,58.49001
1266393,333.4565,326.3146,59.04558,58.49564
1266409,337.4881,326.3905,59.34845,58.50158
1266426,341.3282,326.7042,59.63199,58.52609
1266443,345.1251,327.3155,59.90771,58.57376
1266459,348.6847,328.1954,60.16211,58.64216
1266476,352.2187,328.7397,60.41083,58.68434
1266493,355.8193,328.7404,60.6604,58.68439
1266510,359.2119,328.6849,60.89206,58.68009
1266525,362.4425,328.6882,61.10957,58.68035
1266542,365.231,329.0669,61.29495,58.70964
1266559,367.6519,329.3797,61.45412,58.73379
1266575,369.958,329.4728,61.60426,58.74098
1266593,371.6956,329.3646,61.71643,58.73263
1266609,373.5325,329.2382,61.83413,58.72287
1266626,375.1003,328.8653,61.93388,58.69405
1266643,376.9033,328.6007,62.04779,58.67358
1266660,378.8427,328.2364,62.16937,58.64534
1266675,380.705,327.9886,62.28521,58.62611
1266693,382.3311,328.1715,62.38563,58.64031
1266709,383.6602,328.4129,62.46721,58.65903
1266726,384.7442,328.581,62.53342,58.67205
1266742,385.8969,328.4276,62.60351,58.66016
1266759,386.8205,328.3456,62.65942,58.65381
1266775,387.4678,328.2246,62.69849,58.64442
1266793,388.0805,328.0836,62.73537,58.63349
1266809,388.798,328.0665,62.77844,58.63216
1266828,389.5218,328.0445,62.82177,58.63045
1266843,390.323,328.2177,62.86957,58.64389
1266860,390.7946,328.4712,62.89764,58.66354
1266875,391.0659,328.7985,62.91376,58.68888
1266894,391.075,328.9068,62.9143,58.69726
1266910,391.2111,329.0313,62.92238,58.70689
1266926,391.4114,329.1841,62.93427,58.71869
1266944,391.8961,329.2549,62.96299,58.72416
1266960,392.285,329.4731,62.98599,58.741
1266976,392.6219,329.6593,63.00589,58.75536
1266993,392.799,329.7564,63.01634,58.76284
1267009,393.186,329.7939,63.03915,58.76573
1267026,393.813,329.8181,63.07602,58.76759
1267043,394.4354,329.9107,63.11254,58.77472
1267059,394.9547,329.9234,63.14293,58.7757
1267075,395.7287,329.8951,63.18811,58.77352
1267094,396.4486,329.9525,63.23001,58.77794
1267109,396.9685,329.8293,63.2602,58.76846
1267127,397.2369,329.6013,63.27576,58.75089
1267146,397.4877,329.0974,63.29028,58.71199
1267160,397.6343,328.8372,63.29876,58.69188
1267176,397.543,328.5688,63.29348,58.6711
1267193,397.5995,328.4899,63.29675,58.66499
1267210,397.9102,328.4664,63.31471,58.66317
1267227,398.1256,328.5031,63.32715,58.66601
1267245,398.4272,328.3524,63.34455,58.65433
1267262,398.673,328.2722,63.35872,58.64812
1267277,398.8273,328.0726,63.3676,58.63263
1267292,399.3165,328.2067,63.39573,58.64304
1267310,399.6116,328.2097,63.41268,58.64327
1267327,400.0975,328.2276,63.44054,58.64466
1267345,400.568,328.2651,63.46746,58.64756
1267361,400.852,328.2883,63.48368,58.64937
1267377,401.469,328.0779,63.51887,58.63305
1267393,401.9391,327.9705,63.54562,58.6247
1267410,402.2413,328.0234,63.56279,58.62881
1267428,402.337,328.2324,63.56823,58.64503
1267444,402.4883,328.0907,63.57681,58.63403
1267461,402.6782,327.9185,63.58758,58.62067
1267477,402.9506,327.8029,63.60301,58.61168
1267494,403.1608,327.7956,63.61491,58.61112
1267510,403.372,327.7711,63.62686,58.60921
1267527,403.4724,327.8035,63.63253,58.61173
1267544,403.2011,327.799,63.6172,58.61138
1267562,402.9374,327.5474,63.60226,58.59182
1267578,402.9268,327.2697,63.60166,58.5702
1267593,402.8779,327.099,63.5989,58.5569
1267611,402.8002,327.0995,63.59449,58.55693
1267628,402.6888,327.105,63.58818,58.55736
1267644,402.6614,327.0754,63.58663,58.55506
1267660,402.5831,326.9283,63.58219,58.54359
1267677,402.329,326.713,63.56777,58.52678
1267695,401.7466,326.5376,63.53467,58.51308
1267712,401.148,326.3381,63.50058,58.49747
1267727,400.6254,326.0365,63.47073,58.47387
1267745,400.0663,325.6851,63.43874,58.44632
1267761,399.3361,325.2777,63.39686,58.41434
1267777,398.258,324.7981,63.33479,58.3766
1267794,397.087,324.1018,63.26707,58.32168
1267811,395.796,323.0443,63.19204,58.23793
1267828,394.6042,322.0673,63.12242,58.16021
1267845,393.1474,321.4817,63.03687,58.11346
1267862,391.05,320.6576,62.91282,58.04745
1267878,389.1642,319.0137,62.80038,57.91507
1267896,387.1619,317.556,62.68004,57.79686
1267912,385.1497,315.6532,62.55811,57.64138
1267929,383.6728,314.2079,62.46798,57.52238
1267945,382.361,312.9729,62.38747,57.42008
1267963,380.9614,311.668,62.30108,57.31137
1267979,379.6451,310.3197,62.21939,57.19836
1267995,378.2643,308.7936,62.13321,57.06961
1268012,376.8911,307.4417,62.04702,56.9548
1268029,375.5492,306.224,61.96232,56.85077
1268046,374.485,305.1744,61.8948,56.76065
1268064,373.5584,304.1083,61.83578,56.66867
1268082,372.6906,303.2915,61.7803,56.59788
1268100,371.9879,302.7382,61.73522,56.54978
1268116,371.1825,302.1162,61.68339,56.49556
1268132,370.461,301.6228,61.63681,56.45245
1268149,369.679,301.2116,61.58617,56.41643
1268165,368.7393,300.9113,61.5251,56.39009
1268181,367.3878,300.6576,61.43684,56.36781
1268198,366.1907,300.1242,61.35824,56.32088
1268214,365.0258,299.6849,61.28138,56.28214
1268231,363.8377,299.4228,61.2026,56.25898
1268247,362.4769,299.2431,61.11187,56.2431
1268264,361.0975,298.7463,61.01938,56.1991
1268279,359.6711,298.2306,60.92315,56.15332
1268295,358.1577,297.6104,60.82043,56.09813
1268313,356.6296,297.2997,60.71603,56.07042
1268331,355.3235,296.8419,60.62626,56.02951
1268347,354.1622,296.3462,60.54602,55.98512
1268364,353.1896,295.8967,60.47851,55.94478
1268379,352.0266,295.4281,60.39741,55.90264
1268397,351.1422,295.1339,60.33546,55.87613
1268414,350.2963,294.8113,60.276,55.84703
1268430,349.2635,294.5706,60.2031,55.82528
1268447,348.3291,294.2897,60.13687,55.79988
1268464,347.2969,293.8492,60.06339,55.75996
1268481,346.1332,293.3245,59.98015,55.71232
1268497,345.1678,292.9832,59.91078,55.68126
1268514,343.9333,292.7016,59.82166,55.65561
1268530,342.4048,292.2526,59.71063,55.61462
1268547,341.0366,291.8658,59.61062,55.57924
1268564,339.535,291.4117,59.50018,55.53764
1268581,338.0429,290.912,59.38971,55.49174
1268603,336.5352,290.4561,59.27735,55.44978
1268616,335.172,290.0892,59.17511,55.41594
1268630,333.8233,289.6309,59.07336,55.3736
1268650,332.5523,289.2899,58.97691,55.34203
1268665,331.3896,288.9742,58.88821,55.31276
1268684,330.2111,288.6194,58.79783,55.27982
1268701,329.3371,288.2006,58.73051,55.24086
1268716,328.5146,287.8464,58.6669,55.20785
1268731,327.6291,287.5389,58.59817,55.17914
1268748,327.0077,287.1754,58.54977,55.14516
1268765,326.4503,286.8475,58.50625,55.11446
1268782,325.9391,286.4277,58.46624,55.07508
1268798,325.434,285.9921,58.42662,55.03413
1268814,325.0186,285.6838,58.39396,55.0051
1268832,324.6378,285.5613,58.36398,54.99356
1268848,324.4204,285.4374,58.34683,54.98188
1268865,324.2896,285.1035,58.33651,54.95035
1268881,324.0778,284.9136,58.31978,54.9324
1268897,323.7146,284.7051,58.29106,54.91267
1268913,323.4066,284.4496,58.26667,54.88848
1268930,323.14,284.3335,58.24552,54.87747
1268947,322.784,284.1629,58.21725,54.86129
1268966,322.3216,283.9551,58.18047,54.84156
1268983,321.9063,283.7007,58.14736,54.81738
1268998,321.4903,283.4911,58.11414,54.79744
1269016,321.084,283.2897,58.08163,54.77825
1269030,320.7698,283.0897,58.05646,54.75918
1269047,320.5176,283.0193,58.03622,54.75247
1269064,320.2195,282.9662,58.01228,54.7474
1269081,319.9232,282.7621,57.98843,54.72791
1269097,319.7821,282.4651,57.97707,54.69952
1269114,319.6961,282.1676,57.97015,54.67104
1269135,319.5689,281.9241,57.95989,54.6477
1269150,319.4514,281.8219,57.95041,54.63789
1269165,319.3651,281.6592,57.94345,54.62228
1269181,319.2741,281.5276,57.93611,54.60963
1269197,319.1609,281.3162,57.92696,54.58931
1269214,319.004,281.011,57.91428,54.55993
1269230,318.8231,280.7854,57.89965,54.5382
1269248,318.567,280.7967,57.87893,54.53929
1269264,318.2513,280.6541,57.85334,54.52553
1269280,317.9855,280.3253,57.83177,54.49379
1269299,317.8749,280.0381,57.82279,54.46601
1269313,317.7489,279.9518,57.81255,54.45766
1269331,317.5468,280.0153,57.79611,54.4638
1269348,317.3521,280.1183,57.78026,54.47377
1269365,317.3169,279.9555,57.77739,54.45802
1269382,317.2793,279.8451,57.77433,54.44733
1269398,317.1518,279.7622,57.76394,54.43929
1269414,316.9498,279.6536,57.74747,54.42877
1269431,316.8905,279.4721,57.74263,54.41117
1269450,316.8844,279.3319,57.74213,54.39756
1269467,316.8194,279.339,57.73683,54.39825
1269484,316.7305,279.3153,57.72957,54.39595
1269497,316.7,279.2065,57.72708,54.38538
1269517,316.5461,279.0593,57.71451,54.37107
1269537,316.3521,278.9078,57.69864,54.35635
1269553,316.225,278.5681,57.68824,54.32327
1269569,316.1889,278.2957,57.68529,54.29671
1269584,316.1051,278.1209,57.67842,54.27965
1269601,316.0078,277.8189,57.67046,54.25013
1269618,315.9102,277.3565,57.66245,54.20487
1269634,315.8901,276.7652,57.6608,54.14684
1269654,315.8226,276.1585,57.65527,54.08712
1269669,315.7335,275.4462,57.64796,54.0168
1269684,315.6487,274.343,57.64101,53.90741
1269703,315.7549,273.2425,57.64972,53.79771
1269718,316.132,271.6271,57.68063,53.63565
1269734,316.3137,269.9206,57.6955,53.46308
1269752,316.2616,267.0851,57.69123,53.17321
1269768,316.278,263.6408,57.69258,52.81575
1269786,316.5803,259.5604,57.7173,52.38454
1269803,316.595,255.3172,57.7185,51.92701
1269814,316.509,251.8801,57.71147,51.54942
1269833,315.9016,249.3065,57.66175,51.26254
1269848,315.6385,246.819,57.64017,50.98179
1269865,315.4634,244.4048,57.62579,50.70604
1269883,315.412,242.1527,57.62157,50.44584
1269899,315.5401,239.9833,57.63209,50.19246
1269919,315.4641,237.7767,57.62585,49.93196
1269935,315.417,235.9689,57.62198,49.71642
1269951,315.2845,234.524,57.6111,49.54274
1269969,315.0993,233.4986,57.59587,49.41875
1269984,314.8779,232.334,57.57764,49.27715
1270000,314.5988,230.9375,57.55464,49.10629
1270018,314.1408,229.7748,57.51684,48.96312
1270034,313.6906,228.7406,57.4796,48.83508
1270053,313.2952,227.7103,57.44683,48.70687
1270068,312.9353,226.8229,57.41696,48.59592
1270084,312.501,225.9127,57.38084,48.4816
1270103,311.9823,225.2642,57.33761,48.39984
1270121,311.5087,224.6229,57.29805,48.31873
1270134,311.2125,224.2069,57.27326,48.26598
1270150,311.1384,223.8494,57.26706,48.22055
1270169,310.9283,223.5322,57.24945,48.18019
1270186,310.6607,223.2087,57.22701,48.13894
1270202,310.462,222.895,57.21032,48.09889
1270218,310.4298,222.461,57.20761,48.04338
1270235,310.2475,221.9625,57.19228,47.97947
1270251,309.8145,221.6461,57.15584,47.93882
1270272,309.3132,221.4008,57.11354,47.90727
1270285,308.797,220.844,57.06989,47.83548
1270303,308.3739,220.0131,57.03404,47.72801
1270318,308.0614,219.1273,57.00751,47.61293
1270334,307.7032,218.0956,56.97706,47.47827
1270352,307.4324,217.2708,56.95401,47.37012
1270371,307.4333,216.4851,56.95408,47.26667
1270390,307.3615,215.781,56.94796,47.17362
1270405,307.2423,214.979,56.93781,47.06724
1270419,307.2979,214.2292,56.94254,46.9674
1270435,307.4446,213.4703,56.95504,46.86596
1270453,307.6324,212.7299,56.97104,46.76663
1270470,307.6587,212.1182,56.97327,46.68427
1270495,307.6079,211.6807,56.96895,46.62523
1270505,307.5382,211.2529,56.96302,46.56736
1270518,307.597,210.6199,56.96802,46.48151
1270535,307.6556,209.9853,56.97301,46.39518
1270553,307.7003,209.5679,56.97682,46.33824
1270569,307.7726,209.2393,56.98296,46.29333
1270586,307.8088,208.9256,56.98604,46.25039
1270603,307.8677,208.5829,56.99105,46.20341
1270620,307.9254,208.3354,56.99595,46.16942
1270637,308.0802,208.0807,57.00911,46.1344
1270653,308.1435,207.9161,57.01448,46.11176
1270671,308.0226,207.6829,57.00421,46.07962
1270689,307.8582,207.3729,56.99024,46.03686
1270705,307.6729,207.0215,56.97448,45.98832
1270716,307.5393,206.5685,56.96311,45.92558
1270733,307.4404,206.3648,56.95469,45.89734
1270751,307.423,206.1028,56.9532,45.86095
1270768,307.5378,206.0297,56.96299,45.8508
1270784,307.4861,206.0263,56.95858,45.85033
1270801,307.3409,205.9975,56.94621,45.84633
1270818,307.201,206.0848,56.93428,45.85846
1270834,307.1576,206.0484,56.93058,45.8534
1270852,307.153,206.0263,56.93019,45.85033
1270867,307.0557,205.9567,56.92189,45.84065
1270885,306.7654,205.9285,56.8971,45.83673
1270905,306.581,205.8599,56.88133,45.82719
1270923,306.4497,205.8453,56.87011,45.82516
1270937,306.426,205.8542,56.86808,45.8264
1270954,306.3999,205.9291,56.86584,45.83681
1270971,306.2664,206.189,56.85441,45.87293
1270989,306.1912,206.3577,56.84797,45.89635
