Time Stamp(ms),Intersection,,Angle,
,x,y,x,y
1653914,306.7073,257.9168,56.89214,52.20843
1653942,305.315,257.632,56.77275,52.17778
1653962,303.6835,257.1382,56.63189,52.12451
1653987,302.1344,256.8266,56.49715,52.09084
1654011,300.4586,256.6408,56.35032,52.07074
1654032,298.7536,256.8056,56.19975,52.08857
1654054,296.7384,257.3437,56.02026,52.14669
1654079,294.8701,257.789,55.85234,52.19468
1654101,292.8757,258.0785,55.67147,52.22582
1654127,291.0175,258.0612,55.50144,52.22396
1654153,289.4594,257.7841,55.35773,52.19415
1654174,287.9667,257.1323,55.21907,52.12388
1654198,286.6672,256.3668,55.09755,52.04105
1654222,285.4077,255.7216,54.97908,51.97102
1654249,284.5939,255.394,54.90215,51.93537
1654271,283.9244,255.1266,54.83864,51.90623
1654296,283.175,255.0368,54.76732,51.89643
1654325,282.3241,255.3988,54.68602,51.93589
1654344,281.4771,255.8688,54.60479,51.98702
1654366,280.5966,256.1008,54.51998,52.01221
1654394,279.5224,256.0992,54.41605,52.01204
1654415,278.3715,256.0457,54.3041,52.00623
1654439,276.7344,255.8468,54.14381,51.98463
1654463,274.4077,255.553,53.91384,51.95268
1654485,271.4856,255.2126,53.62139,51.9156
1654511,268.0841,254.6937,53.27579,51.85898
1654535,264.1033,253.9546,52.8641,51.77807
1654558,259.7994,252.9513,52.41003,51.66778
1654581,255.7149,252.103,51.97029,51.5741
1654607,251.4258,251.2695,51.49903,51.48168
1654631,246.8613,250.668,50.98659,51.41476
1654653,242.4707,250.2233,50.48276,51.36514
1654679,238.5436,249.4417,50.02282,51.27769
1654701,235.023,248.5578,49.60286,51.17839
1654723,231.224,247.7254,49.14143,51.08448
1654748,228.6298,246.9473,48.82132,50.99635
1654773,225.7979,245.8026,48.46716,50.86609
1654797,223.2708,244.9986,48.14687,50.77416
1654818,221.0745,244.4091,47.86523,50.70653
1654843,218.5581,243.6707,47.53873,50.62154
1654870,216.6384,243.0667,47.28689,50.55179
1654890,214.1588,242.6592,46.958,50.50462
1654918,212.3514,242.4621,46.71571,50.48176
1654941,210.221,241.9786,46.42728,50.42561
1654964,208.2931,241.745,46.16362,50.39843
1654987,206.3524,241.601,45.89562,50.38166
1655013,204.2934,241.7498,45.60843,50.39899
1655033,202.5341,241.7203,45.36069,50.39555
1655057,200.9177,241.4608,45.13116,50.36533
1655082,199.9127,241.5277,44.98749,50.37312
1655105,198.9681,241.7169,44.85181,50.39516
1655130,198.2899,241.9303,44.75399,50.41999
1655153,197.8626,241.9134,44.6922,50.41803
1655177,197.5961,241.9641,44.65358,50.42392
1655200,197.5971,242.1455,44.65373,50.445
1655227,197.6662,242.3245,44.66375,50.46579
1655251,197.7783,242.3167,44.67999,50.46489
1655274,198.0571,242.2993,44.72034,50.46286
1655297,198.3625,242.2612,44.76448,50.45845
1655318,198.5403,242.0594,44.79014,50.435
1655344,198.5754,241.6029,44.79522,50.38189
1655369,198.642,241.3974,44.80482,50.35793
1655392,198.8094,241.2521,44.82895,50.34098
1655416,199.1776,240.8987,44.88195,50.29971
1655439,199.5308,240.6597,44.93272,50.27176
1655464,200.1484,240.7725,45.02125,50.28496
1655495,200.8439,241.1286,45.12062,50.32657
1655513,201.6179,241.4848,45.23081,50.36813
1655534,202.4851,241.674,45.35376,50.39016
1655556,203.3859,242.1707,45.48091,50.44793
1655580,204.266,242.7668,45.60458,50.51707
1655604,205.0062,243.285,45.70819,50.57703
1655630,205.7883,243.6947,45.81723,50.62431
1655653,206.4471,243.8831,45.90875,50.64602
1655677,206.9636,243.9675,45.9803,50.65575
1655700,207.3674,243.9794,46.0361,50.65711
1655722,207.6741,244.0157,46.07842,50.66129
1655747,207.8663,244.1908,46.1049,50.68144
1655772,207.9527,244.431,46.11679,50.70905
1655797,207.9061,244.6167,46.11037,50.73038
1655818,207.8237,244.7753,46.09903,50.74857
1655843,207.7165,244.9651,46.08426,50.77033
1655868,207.713,245.1004,46.08377,50.78582
1655890,207.7595,245.2276,46.09019,50.80038
1655914,207.7051,245.4514,46.08269,50.82598
1655938,207.6324,245.7391,46.07266,50.85884
1655968,207.6582,245.909,46.07622,50.87823
1655986,207.683,245.97,46.07964,50.88518
1656008,207.6344,246.0578,46.07294,50.8952
1656033,207.6647,246.1697,46.07712,50.90794
1656055,207.6848,246.3192,46.07989,50.92498
1656081,207.8992,246.3739,46.10943,50.93119
1656105,208.248,246.6601,46.15742,50.96374
1656128,209.154,247.0315,46.28167,51.00591
1656152,211.2791,247.5986,46.5709,51.07014
1656175,214.4158,248.5451,46.99228,51.17696
1656199,219.876,249.827,47.71023,51.32085
1656221,227.2316,251.312,48.64708,51.4864
1656246,237.1462,252.7238,49.857,51.64269
1656270,248.8913,253.9067,51.21591,51.77282
1656295,261.1816,255.1551,52.55688,51.90934
1656317,274.1077,256.0338,53.884,52.00494
1656342,285.5377,256.6975,54.99134,52.07687
1656369,296.8488,257.3538,56.03013,52.14778
1656390,307.3327,257.494,56.94551,52.16291
1656417,319.8811,256.4418,57.98504,52.04918
1656442,327.8045,255.4707,58.6118,51.94373
1656462,336.6143,254.4844,59.28326,51.8361
1656485,345.9044,253.031,59.96374,51.67656
1656509,355.0202,251.3402,60.60534,51.48954
1656534,364.5704,249.6605,61.25123,51.3022
1656561,372.0123,248.6814,61.73679,51.1923
1656578,379.6091,247.8358,62.21715,51.09696
1656604,386.8106,246.8177,62.65882,50.98164
1656630,392.9229,246.4126,63.02365,50.9356
1656650,398.0621,245.9907,63.32348,50.88754
1656675,402.1162,244.9523,63.55569,50.76886
1656701,404.1413,244.3576,63.67028,50.70062
1656722,405.3228,244.7337,63.73671,50.74379
1656744,406.9044,244.8698,63.82515,50.7594
1656771,408.2303,244.6164,63.89886,50.73034
1656795,409.2327,244.2485,63.95434,50.68807
1656829,408.7174,244.2763,63.92585,50.69127
1656847,408.6773,244.5516,63.92363,50.7229
1656869,408.5337,244.7926,63.91568,50.75056
1656892,408.3642,244.9678,63.90629,50.77063
1656917,408.0793,244.9021,63.89049,50.7631
1656939,408.004,244.6787,63.88631,50.73748
1656963,408.0368,244.4516,63.88813,50.71141
1656987,407.9426,244.472,63.8829,50.71375
1657012,407.82,244.2472,63.87609,50.68792
1657037,407.7234,244.3181,63.87073,50.69608
1657059,407.7268,244.28,63.87092,50.69169
1657085,407.6468,244.3047,63.86647,50.69454
1657108,407.42,244.4634,63.85386,50.71278
1657137,407.1659,244.559,63.83972,50.72375
1657157,406.8336,244.5578,63.8212,50.72361
1657179,406.4371,244.3287,63.79908,50.69729
1657204,405.7894,243.8226,63.76286,50.63905
1657228,405.046,243.9683,63.72117,50.65583
1657251,404.1316,244.2343,63.66973,50.68644
1657277,403.3907,244.3407,63.62791,50.69867
1657300,402.4904,244.5991,63.57693,50.72835
1657323,401.7438,244.9931,63.53452,50.77354
1657349,401.079,245.5313,63.49664,50.83511
1657373,400.2248,246.0178,63.44782,50.89064
1657396,399.2626,246.3966,63.39264,50.93378
1657420,398.1792,247.0455,63.33024,51.00749
1657444,396.8365,247.939,63.25254,51.10861
1657470,395.286,248.6264,63.16229,51.18612
1657492,394.0385,248.9977,63.08926,51.22786
1657512,393.1978,249.4268,63.03984,51.27602
1657537,392.5283,249.8169,63.00037,51.31971
1657560,392.0295,250.0211,62.97088,51.34256
1657587,391.6016,250.0133,62.94555,51.34168
1657608,391.3402,250.216,62.93005,51.36432
1657630,390.9955,250.5382,62.90958,51.40028
1657658,390.4293,250.8601,62.8759,51.43615
1657681,389.5475,250.9019,62.8233,51.4408
1657716,388.1341,250.8427,62.73859,51.4342
1657729,385.0871,251.0052,62.55431,51.4523
1657755,379.4086,251.4281,62.20467,51.4993
1657777,371.167,251.7492,61.68239,51.53492
1657801,359.8889,252.2881,60.93789,51.59457
1657827,348.831,252.6628,60.17248,51.63596
1657851,338.5709,252.8296,59.42888,51.65435
1657875,327.4091,252.6537,58.58105,51.63495
1657896,319.781,252.2444,57.97698,51.58974
1657920,314.8257,252.0193,57.57334,51.56484
1657944,312.0748,251.9083,57.34533,51.55254
1657969,308.3009,251.3511,57.02784,51.49075
1657993,303.4449,250.8682,56.6112,51.43705
1658016,298.0393,250.2579,56.13632,51.369
1658039,291.284,249.1646,55.52592,51.2466
1658064,283.2498,247.1167,54.77445,51.01557
1658090,271.8974,242.5572,53.66286,50.49279
1658111,258.7182,236.5428,52.29447,49.78505
1658135,241.6565,228.9022,50.38813,48.85513
1658160,225.2621,223.3963,48.39959,48.16287
1658186,208.6273,219.098,46.2095,47.60912
1658208,193.2658,215.5602,44.01898,47.14438
1658231,180.4166,212.9844,42.05308,46.80081
1658257,170.4615,212.2933,40.4412,46.70788
1658279,163.3402,211.605,39.23854,46.61499
1658302,156.7774,210.5236,38.09243,46.46843
1658326,152.2034,209.581,37.27176,46.34003
1658348,149.1422,208.9704,36.7123,46.25653
1658378,147.4375,208.4197,36.39718,46.181
1658398,146.3414,207.7281,36.1932,46.08585
1658420,145.4255,206.9825,36.02193,45.98292
1658445,145.7313,206.6636,36.0792,45.93876
1658467,146.5959,206.1446,36.24064,45.86676
1658494,147.7382,205.4874,36.45295,45.77533
1658515,148.8551,205.2933,36.6594,45.74826
1658541,150.2097,205.8438,36.90833,45.82495
1658564,151.4098,206.5676,37.12751,45.92546
1658588,152.6078,206.8844,37.34504,45.96934
1658612,153.6089,207.0676,37.52586,45.99468
1658635,154.2874,207.4816,37.64792,46.05187
1658661,154.636,207.9522,37.71048,46.11672
1658681,154.7532,208.4055,37.73149,46.17906
1658704,154.98,208.483,37.7721,46.1897
1658730,155.066,208.3615,37.78749,46.17301
1658752,154.906,208.5234,37.75885,46.19524
1658776,154.894,208.856,37.7567,46.24086
1658797,155.091,208.9105,37.79198,46.24832
1658820,155.3951,208.7936,37.84632,46.23231
1658847,155.6441,208.8443,37.89079,46.23926
1658872,155.9516,209.0409,37.9456,46.26618
1658893,156.4557,209.1849,38.03531,46.28589
1658915,157.0154,209.3154,38.13464,46.30374
1658938,157.5436,209.6105,38.22814,46.34406
1658963,157.9024,210.0102,38.29151,46.39857
1658987,158.2906,210.4264,38.35996,46.45522
1659011,158.5996,210.7203,38.41435,46.49516
1659034,158.9219,210.6515,38.47099,46.48581
1659058,159.094,210.5835,38.50119,46.47657
1659080,159.2543,210.5549,38.52932,46.47269
1659104,159.381,210.6202,38.55151,46.48156
1659132,159.4943,210.5665,38.57137,46.47425
1659150,159.5404,210.3878,38.57944,46.44997
1659175,159.6379,210.3741,38.59649,46.44811
1659198,159.7152,210.4469,38.61003,46.458
1659219,159.9868,210.7692,38.65751,46.50179
1659248,160.3049,211.0042,38.71302,46.53367
1659269,160.7703,211.5093,38.79411,46.60206
1659294,161.3384,212.3965,38.89284,46.72177
1659314,162.2274,213.6405,39.04679,46.88874
1659340,164.0233,215.9136,39.35574,47.19117
1659364,166.9206,219.0146,39.84848,47.59826
1659386,170.2982,222.5946,40.4141,48.06049
1659413,175.1931,227.1778,41.21724,48.64036
1659433,180.3882,231.3167,42.0486,49.15279
1659457,185.6705,234.621,42.87217,49.55444
1659481,190.4155,236.3348,43.5937,49.76019
1659507,194.425,237.3889,44.1902,49.88588
1659529,197.9088,238.2124,44.69889,49.98363
1659551,200.2996,238.9258,45.04289,50.06798
1659575,201.9792,239.4412,45.2821,50.12873
1659604,202.9255,240.0348,45.416,50.19851
1659623,203.6939,240.8178,45.52426,50.29026
1659648,203.7075,241.561,45.52616,50.37701
1659673,203.4394,242.3837,45.48844,50.47267
1659699,203.045,243.1136,45.43286,50.55722
1659724,202.4065,243.5616,45.34264,50.60896
1659745,201.6211,243.9211,45.23127,50.65039
1659768,200.8582,244.0416,45.12266,50.66427
1659792,199.7641,244.0253,44.96619,50.66239
1659819,198.808,243.8772,44.82875,50.64534
1659839,197.8412,243.49,44.6891,50.60069
1659863,196.7026,242.8721,44.52377,50.52927
1659887,195.8918,242.3381,44.40545,50.46738
1659910,194.9994,241.9165,44.27468,50.41838
1659933,194.1522,241.3683,44.15,50.35455
1659964,193.4085,241.0201,44.0401,50.3139
1659981,192.7727,240.9734,43.94583,50.30844
1660003,192.1261,241.1464,43.84966,50.32864
1660032,191.4634,241.4501,43.75075,50.36407
1660053,191.0209,241.3464,43.68454,50.35199
1660077,190.6267,241.3197,43.62542,50.34888
1660100,190.3849,241.3926,43.5891,50.35738
1660124,190.2222,241.3992,43.56463,50.35814
1660149,190.2728,241.2139,43.57225,50.33653
1660172,190.3051,240.8773,43.57711,50.29721
1660197,190.3815,240.7027,43.58859,50.27679
1660219,190.3308,240.5537,43.58097,50.25935
1660241,190.1763,240.3641,43.55773,50.23714
1660268,189.987,240.2294,43.52924,50.22134
1660291,189.7344,239.969,43.49118,50.19079
1660316,189.3822,240.0317,43.43803,50.19815
1660338,189.0213,240.1727,43.38347,50.2147
1660363,188.8594,240.4147,43.35896,50.24307
1660386,188.8515,240.4407,43.35775,50.24612
1660409,188.8331,240.4152,43.35497,50.24312
1660434,188.7847,240.6045,43.34764,50.26529
1660458,188.9436,240.6512,43.3717,50.27077
1660483,189.221,240.454,43.41367,50.24767
1660505,190.0675,240.1322,43.54137,50.20995
1660528,191.9507,240.0779,43.82351,50.20358
1660554,194.6473,240.085,44.22293,50.20441
1660580,199.6426,240.0147,44.94876,50.19616
1660602,205.3565,240.4676,45.75707,50.24926
1660625,212.2514,241.2635,46.70222,50.34232
1660649,220.4019,242.0283,47.77835,50.43139
1660672,229.4907,242.3111,48.92801,50.46424
1660700,238.6522,242.7022,50.03566,50.50959
1660722,246.9571,243,50.99746,50.54408
1660744,257.103,243.3296,52.12071,50.58218
1660769,267.2602,243.4501,53.19123,50.59609
1660792,276.6993,243.7191,54.14036,50.62712
1660815,286.8071,244.1867,55.11067,50.68097
1660840,295.2873,244.6146,55.88996,50.73013
1660862,304.5847,245.2672,56.70982,50.80491
1660888,312.3071,245.841,57.36469,50.87047
1660912,319.6476,246.3103,57.96624,50.92396
1660936,326.6715,246.53,58.52354,50.94896
1660959,332.7272,246.3192,58.99022,50.92497
1660984,338.2813,246.0796,59.40741,50.89769
1661008,342.4994,245.891,59.71753,50.87618
1661031,346.5905,245.6511,60.01291,50.8488
1661055,350.0331,245.5484,60.25745,50.83706
1661080,352.0759,245.5546,60.40085,50.83778
1661103,353.9119,245.4614,60.52867,50.82712
1661128,355.0581,245.4319,60.60796,50.82375
1661150,355.7686,245.3482,60.65691,50.81418
1661173,355.8704,245.4185,60.66391,50.82222
1661195,355.8244,245.4441,60.66075,50.82515
1661222,355.6014,245.3702,60.6454,50.8167
1661245,355.4695,245.3266,60.63632,50.81171
1661272,355.345,245.0956,60.62774,50.78527
1661293,355.3659,244.7278,60.62918,50.74312
1661318,355.6266,244.4599,60.64714,50.71237
1661346,356.1553,244.1595,60.68349,50.67784
1661364,356.6984,244.0341,60.72075,50.66341
1661391,357.2397,243.969,60.7578,50.65591
1661415,357.8321,244.0129,60.79824,50.66097
1661438,358.3383,244.1053,60.83272,50.6716
1661459,358.6113,244.2434,60.85129,50.68749
1661484,358.6737,244.5388,60.85553,50.72143
1661509,358.4624,244.9402,60.84116,50.76747
1661532,358.01,245.5238,60.81037,50.83426
1661558,357.4173,245.8991,60.76993,50.87711
1661577,356.6656,246.2092,60.7185,50.91244
1661602,355.9788,246.1084,60.67136,50.90096
1661626,355.5444,245.8531,60.64148,50.87186
1661651,355.1581,246.0048,60.61486,50.88915
1661676,354.9056,246.2524,60.59743,50.91737
1661698,354.7184,246.5407,60.5845,50.95017
1661728,354.5605,246.8693,60.57358,50.9875
1661744,354.429,247.2839,60.56449,51.03452
1661769,354.2693,247.6447,60.55344,51.07536
1661792,354.0838,247.9739,60.54059,51.11256
1661815,353.7914,248.4554,60.52031,51.16685
1661842,353.4905,248.7695,60.49942,51.20221
1661865,353.0322,249.0341,60.46756,51.23196
1661889,352.4473,249.4546,60.42679,51.27913
1661916,351.7383,249.9183,60.37724,51.33106
1661936,350.7639,250.464,60.3089,51.392
1661960,349.3231,251.5517,60.20731,51.51301
1661987,347.4209,252.7235,60.07223,51.64266
1662009,344.3306,254.2318,59.85039,51.80845
1662033,340.0772,256.0418,59.54014,52.00581
1662057,334.96,258.0349,59.15915,52.22113
1662081,329.2388,260.235,58.72292,52.45642
1662108,323.1254,262.4026,58.24437,52.68581
1662130,317.3535,264.1767,57.78037,52.87177
1662155,310.6802,265.7282,57.22864,53.0331
1662177,304.497,266.6407,56.70226,53.12743
1662201,297.6104,267.3639,56.09813,53.20189
1662225,291.7958,267.2657,55.57284,53.1918
1662248,286.2588,266.5738,55.05921,53.12053
1662273,280.5199,265.518,54.51258,53.01131
1662296,275.9014,264.621,54.06177,52.91809
1662322,271.1848,263.8215,53.59106,52.83466
1662343,267.055,263.6029,53.17011,52.81179
1662367,262.7679,264.0609,52.72422,52.85967
1662392,259.1698,264.2508,52.34282,52.8795
1662414,255.8748,264.5082,51.98767,52.90633
1662439,252.8133,265.0614,51.65257,52.96391
1662462,249.9893,265.653,51.33899,53.02531
1662494,247.4475,265.9794,51.05304,53.05911
1662511,245.2746,265.8636,50.80577,53.04712
1662537,243.2891,265.5296,50.5775,53.01251
1662561,241.5686,264.8356,50.3779,52.94043
1662588,240.1387,263.6107,50.2107,52.8126
1662610,238.4081,262.138,50.00679,52.65792
1662634,236.3801,261.0141,49.76561,52.53915
1662659,233.7617,260.7281,49.45063,52.50882
1662683,231.0241,260.7599,49.11692,52.51219
1662706,228.2072,260.6502,48.76879,52.50054
1662729,225.9146,260.2918,48.48185,52.46246
1662757,223.2849,259.2139,48.14867,52.34753
1662778,220.3084,257.0486,47.76626,52.11484
1662802,217.7232,255.7091,47.42949,51.96966
1662824,215.1583,254.304,47.09106,51.81636
1662844,213.1021,252.5799,46.8166,51.62682
1662871,210.968,251.2278,46.52876,51.47704
1662895,209.4237,250.0847,46.31854,51.34966
1662918,207.9968,249.3282,46.12286,51.26497
1662942,206.7755,249.2018,45.95426,51.25078
1662965,205.9483,249.0216,45.83948,51.23055
1662991,205.3397,248.6313,45.75473,51.18666
1663011,204.9754,247.9638,45.70388,51.11142
1663036,204.6205,246.715,45.65424,50.96997
1663059,204.2927,245.7829,45.60833,50.86384
1663084,204.0427,245.243,45.57326,50.80214
1663109,203.7206,245.5885,45.52802,50.84165
1663129,203.266,246.1089,45.46402,50.90102
1663155,202.7634,245.3697,45.3931,50.81665
1663179,202.2783,244.8622,45.3245,50.75853
1663202,201.889,244.5847,45.26931,50.7267
1663227,201.5357,243.9742,45.21914,50.65651
1663251,201.4819,243.2014,45.21148,50.56736
1663275,201.8355,242.3363,45.26172,50.46717
1663300,201.8926,241.7758,45.26982,50.40201
1663322,201.8694,241.6034,45.26653,50.38195
1663350,201.9868,241.6047,45.28318,50.3821
1663371,202.0801,241.3761,45.29641,50.35545
1663393,202.3449,241.2514,45.33392,50.3409
1663416,202.718,241.125,45.38668,50.32615
1663442,203.0303,240.6564,45.43079,50.27137
1663463,203.3888,239.8146,45.48132,50.17265
1663489,204.0366,238.8617,45.5724,50.06041
1663513,204.3526,239.0079,45.61672,50.07766
1663538,204.3314,239.3466,45.61375,50.11758
1663560,204.2393,239.6656,45.60084,50.15514
1663582,203.9962,239.7062,45.56673,50.15991
1663606,203.4156,239.434,45.48509,50.12789
1663629,202.8471,239.1069,45.40493,50.08934
1663654,202.372,239.1873,45.33776,50.09882
1663678,202.039,239.3716,45.29058,50.12054
1663701,201.8537,239.3686,45.2643,50.12019
1663725,201.9601,239.2973,45.2794,50.11179
1663747,202.0059,239.5029,45.28589,50.13599
1663774,201.791,239.9591,45.2554,50.18962
1663798,201.7399,240.3293,45.24814,50.23306
1663818,201.9729,240.2407,45.2812,50.22267
1663842,202.2012,239.7764,45.31357,50.16817
1663867,202.4527,239.3413,45.34919,50.11696
1663892,202.8121,239.1677,45.39999,50.09651
1663914,203.1411,238.4456,45.44642,50.01123
