Time Stamp(ms),Intersection,,Angle,
,x,y,x,y
1020391,304.1766,252.8772,56.67457,51.65961
1020409,304.3253,252.3125,56.68742,51.59727
1020426,304.5768,251.785,56.70914,51.53888
1020440,304.7278,251.0792,56.72217,51.46053
1020459,304.7048,250.2068,56.72019,51.3633
1020474,304.6864,249.4729,56.7186,51.28119
1020490,305.4409,248.6974,56.78357,51.1941
1020507,306.6645,248.4015,56.88847,51.16079
1020524,307.7783,248.3146,56.98345,51.15099
1020540,308.8367,248.3248,57.07325,51.15215
1020557,309.8213,248.2617,57.15641,51.14503
1020573,310.9315,248.2527,57.24972,51.14401
1020591,312.1199,247.8872,57.34909,51.10277
1020608,313.5577,247.7363,57.46859,51.08571
1020624,314.8116,247.7147,57.57219,51.08327
1020642,315.965,247.5805,57.66694,51.0681
1020661,317.0105,247.1551,57.75242,51.01992
1020677,317.8284,246.8283,57.81901,50.98285
1020692,318.8757,246.345,57.90392,50.92791
1020709,319.8045,245.8486,57.97888,50.87134
1020726,320.7959,245.2756,58.05855,50.80588
1020742,321.8172,244.8062,58.14025,50.75211
1020758,322.7417,244.5155,58.21389,50.71875
1020775,323.6899,244.1679,58.28911,50.6788
1020791,324.4676,243.8574,58.35055,50.64306
1020808,325.024,243.7334,58.39439,50.62877
1020825,325.2146,243.8173,58.40937,50.63844
1020841,325.2737,243.8612,58.41402,50.6435
1020859,325.0445,243.9079,58.396,50.64888
1020875,324.434,244.015,58.3479,50.66121
1020896,323.8625,244.0877,58.30276,50.66957
1020913,322.8804,244.2423,58.22491,50.68736
1020928,321.9833,244.4527,58.15351,50.71154
1020943,320.7005,244.5826,58.0509,50.72645
1020965,319.6589,244.5865,57.96715,50.72691
1020976,318.7387,244.5401,57.89283,50.72158
1020993,317.7242,244.4732,57.81054,50.7139
1021009,316.8279,244.4093,57.73753,50.70656
1021027,316.0081,244.3212,57.67048,50.69643
1021042,315.3199,244.119,57.614,50.67318
1021058,314.6648,243.9501,57.56009,50.65374
1021074,314.1622,243.9314,57.5186,50.65158
1021092,313.7776,243.9899,57.4868,50.65831
1021109,313.4063,244.1291,57.45604,50.67434
1021127,313.1877,244.0926,57.43791,50.67014
1021143,312.9255,243.9958,57.41615,50.659
1021160,312.8079,243.9621,57.40637,50.65512
1021177,312.6618,243.9907,57.39422,50.65841
1021193,312.5947,244.0136,57.38864,50.66105
1021211,312.6059,244.1747,57.38957,50.67959
1021226,312.561,244.3203,57.38583,50.69633
1021244,312.5138,244.4233,57.3819,50.70816
1021258,312.499,244.4513,57.38067,50.71138
1021275,312.45,244.4367,57.3766,50.70971
1021294,312.4318,244.4534,57.37508,50.71162
1021308,312.4362,244.5039,57.37544,50.71742
1021327,312.4502,244.6492,57.37661,50.73411
1021344,312.4098,244.8264,57.37325,50.75443
1021360,312.2489,244.9787,57.35984,50.77189
1021378,312.0674,245.0681,57.34471,50.78213
1021392,311.8075,245.0998,57.32302,50.78576
1021410,311.5085,245.1305,57.29803,50.78927
1021427,310.8409,245.2318,57.24213,50.80087
1021441,309.8317,245.2917,57.15728,50.80772
1021459,308.0708,245.2981,57.00831,50.80845
1021474,304.2702,245.2674,56.68266,50.80494
1021492,299.6655,245.2063,56.28043,50.79795
1021510,293.2441,245.1565,55.70501,50.79224
1021526,283.5202,245.2736,54.8002,50.80564
1021542,273.4386,245.3851,53.81731,50.8184
1021559,262.092,245.6514,52.65308,50.84883
1021575,248.3718,246.0532,51.15744,50.89467
1021592,236.1442,246.4966,49.7374,50.94515
1021609,221.8296,247.4018,47.9624,51.04787
1021626,207.3156,248.3811,46.02895,51.15849
1021644,193.9656,249.038,44.12246,51.23239
1021660,180.5607,249.0883,42.07584,51.23803
1021676,168.9736,248.5871,40.1934,51.18169
1021693,158.3587,247.2402,38.37196,51.02956
1021711,149.6223,246.0211,36.80059,50.89101
1021726,141.6096,245.1069,35.30033,50.78657
1021743,135.697,244.5572,34.1563,50.72355
1021760,129.3723,244.0625,32.89728,50.66668
1021776,123.9453,243.5613,31.78759,50.60892
1021795,119.0652,243.2124,30.76645,50.56863
1021811,114.3528,243.1876,29.75937,50.56577
1021828,112.2639,243.7169,29.30634,50.62686
1021843,109.0656,244.2544,28.60487,50.68875
1021863,107.1607,245.247,28.18257,50.8026
1021877,104.6689,246.1166,27.62507,50.9019
1021894,101.9903,247.3696,27.01938,51.04423
1021913,100.6769,248.7441,26.71997,51.19935
1021928,99.17087,249.836,26.37471,51.32185
1021946,98.87193,250.6489,26.30593,51.41262
1021962,98.67614,251.3798,26.26084,51.49393
1021978,98.31561,251.8636,26.17772,51.5476
1021995,98.02336,252.2126,26.11025,51.58623
1022011,98.00272,252.3999,26.10548,51.60693
1022028,97.81894,252.7863,26.06301,51.64959
1022046,97.75209,253.0443,26.04756,51.67802
1022061,97.52135,253.0659,25.99417,51.6804
1022077,97.27525,253.1124,25.93719,51.68552
1022094,97.14137,253.1814,25.90616,51.69312
1022112,97.42583,252.7953,25.97206,51.65058
1022129,97.58574,251.6468,26.00908,51.52356
1022144,97.60564,249.4945,26.01368,51.28361
1022161,97.66528,245.4234,26.02748,50.82278
1022178,98.84574,236.8849,26.2999,49.82587
1022196,101.2569,227.4328,26.8524,48.67223
1022212,104.9089,217.4914,27.67901,47.39908
1022230,109.7933,207.9574,28.76531,46.11744
1022247,114.2255,199.0963,29.73187,44.87026
1022263,117.4656,191.1524,30.42692,43.70422
1022279,119.9325,183.9707,30.94953,42.60951
1022294,122.2184,176.562,31.42877,41.43839
1022312,123.7341,171.2576,31.74386,40.57305
1022329,125.3794,167.1751,32.08348,39.89142
1022345,127.774,164.7078,32.57329,39.47279
1022361,130.6768,162.8239,33.15996,39.1497
1022379,133.8835,162.0279,33.79904,39.0123
1022395,138.3718,162.0924,34.67777,39.02346
1022412,143.2442,162.0372,35.61104,39.01391
1022430,150.1665,163.0551,36.90041,39.18952
1022447,157.0583,163.4424,38.14225,39.25611
1022462,166.0401,163.9187,39.69948,39.33783
1022480,174.3594,164.4057,41.08181,39.42118
1022496,183.2061,165.4692,42.49063,39.60252
1022512,193.88,167.2003,44.10983,39.89567
1022530,203.4153,168.3978,45.48506,40.09701
1022547,213.8929,169.2734,46.92249,40.24347
1022564,225.2374,169.7861,48.39647,40.32894
1022580,235.7395,170.0443,49.68893,40.3719
1022597,247.1912,170.05,51.02401,40.37285
1022614,258.7698,169.8519,52.3,40.33989
1022630,270.5499,169.4246,53.52689,40.2687
1022646,283.6557,167.9096,54.8131,40.01508
1022663,294.3923,166.1674,55.80916,39.72105
1022680,304.7415,164.1798,56.72335,39.38254
1022697,313.9586,162.7286,57.50178,39.13329
1022714,321.7736,161.3977,58.13677,38.90313
1022730,329.7534,159.3386,58.76261,38.54409
1022748,336.4034,157.4726,59.26749,38.2156
1022764,342.4211,155.898,59.71181,37.93605
1022780,347.7043,154.9918,60.09242,37.77422
1022797,353.2405,154.2891,60.48205,37.64823
1022814,357.7893,153.5334,60.79533,37.51226
1022831,361.8032,152.8105,61.06676,37.38173
1022847,365.928,151.9766,61.34095,37.23058
1022863,369.8039,151.2683,61.59427,37.10173
1022880,373.1375,150.3927,61.8089,36.94184
1022897,376.3066,149.1134,62.01018,36.70699
1022915,378.7301,147.7048,62.16234,36.44675
1022931,381.0065,146.6692,62.30387,36.2543
1022948,383.0806,145.9184,62.43169,36.11418
1022963,385.1575,145.1215,62.55859,35.96491
1022981,387.03,144.303,62.67208,35.81101
1022998,388.545,143.7215,62.76327,35.70131
1023014,390.1876,142.9296,62.8615,35.55142
1023032,391.3355,142.2878,62.92977,35.42954
1023048,392.1605,141.3364,62.97863,35.24816
1023064,393.0118,140.5061,63.02888,35.08921
1023081,393.4483,139.9126,63.05458,34.97522
1023098,393.9681,139.4281,63.08513,34.88192
1023115,394.4037,139.245,63.11068,34.84659
1023132,394.7073,139.2381,63.12846,34.84526
1023148,394.8414,139.2501,63.1363,34.84759
1023165,394.7484,139.3875,63.13086,34.87408
1023182,394.6379,139.7214,63.12439,34.93842
1023199,394.5534,140.0243,63.11945,34.99669
1023215,394.3944,140.3045,63.11013,35.05053
1023233,394.2701,140.6691,63.10285,35.12046
1023252,394.1664,140.9286,63.09677,35.17017
1023267,394.0262,141.1353,63.08854,35.20971
1023283,393.9098,141.1296,63.08171,35.20863
1023299,393.7863,141.0579,63.07445,35.19492
1023316,393.5643,141.0124,63.06141,35.18622
1023335,393.2648,141.0342,63.04379,35.19038
1023352,393.0177,141.12,63.02923,35.2068
1023367,392.7589,141.2154,63.01398,35.22503
1023384,392.5376,141.107,63.00092,35.20431
1023400,392.2436,141.093,62.98355,35.20164
1023420,391.9584,141.0238,62.96668,35.18839
1023434,391.6406,141.2116,62.94786,35.22432
1023450,391.3138,141.3392,62.92848,35.2487
1023467,390.9979,141.5685,62.90973,35.29248
1023484,390.7913,141.7597,62.89745,35.32896
1023500,390.6544,141.9623,62.88931,35.36758
1023520,390.5691,142.15,62.88423,35.40331
1023534,390.4947,142.3048,62.8798,35.43276
1023552,390.5507,142.5918,62.88313,35.4873
1023569,390.6076,142.9759,62.88652,35.5602
1023585,390.7641,143.3128,62.89583,35.62402
1023601,391.1195,143.6354,62.91695,35.68504
1023619,391.4343,144.0071,62.93563,35.75523
1023635,391.777,144.3998,62.95594,35.82925
1023652,392.034,144.7553,62.97115,35.89613
1023670,392.2513,145.2419,62.984,35.98751
1023684,392.4858,145.7342,62.99786,36.07973
1023701,392.7574,146.1845,63.01389,36.16391
1023718,392.8881,146.7498,63.0216,36.26933
1023735,392.7324,147.5211,63.01241,36.41268
1023752,392.2035,148.5177,62.98117,36.59716
1023769,391.4863,149.4585,62.93871,36.77048
1023783,390.5533,150.5063,62.88329,36.9626
1023801,389.9061,151.2413,62.84472,37.0968
1023817,389.1122,152.2668,62.79726,37.28325
1023833,388.147,153.5677,62.73937,37.51844
1023851,387.0767,155.0064,62.6749,37.77684
1023867,385.6454,156.5656,62.58825,38.05484
1023884,384.4478,158.3366,62.51534,38.36806
1023900,383.2367,160.6711,62.44126,38.77684
1023917,381.9841,164.2084,62.36425,39.38743
1023934,380.1226,169.6861,62.24908,40.31229
1023966,378.9104,172.922,62.1736,40.84702
1023981,377.6022,176.5898,62.09171,41.44286
1023990,376.6722,179.7186,62.03323,41.94264
1024001,375.3538,184.0557,61.94994,42.62269
1024018,374.1593,188.1056,61.87409,43.24458
1024033,372.7999,192.6221,61.7873,43.92345
1024051,371.4402,196.7949,61.7,44.5372
1024069,370.3082,200.2762,61.62693,45.03953
1024084,369.1422,203.8178,61.55132,45.54168
1024102,367.997,206.8282,61.47668,45.96156
1024118,366.7021,209.964,61.39186,46.39227
1024134,365.0257,213.0479,61.28137,46.80934
1024151,363.1818,215.9488,61.15893,47.19582
1024168,360.951,218.279,61.00952,47.50227
1024185,358.463,220.7327,60.84121,47.82112
1024202,354.7858,223.0076,60.58916,48.11327
1024219,350.2129,224.7867,60.27012,48.33947
1024236,344.4102,226.152,59.85614,48.51171
1024252,335.8815,227.1318,59.22839,48.63459
1024269,327.056,228.2482,58.55355,48.77389
1024286,317.9335,229.268,57.82755,48.90046
1024303,307.5427,230.0563,56.9634,48.99785
1024320,299.1491,230.8327,56.23478,49.09341
1024335,290.5652,231.9793,55.45983,49.23387
1024353,283.5496,233.1702,54.803,49.37891
1024370,277.5471,234.5233,54.22353,49.54266
1024386,272.9067,235.9777,53.76413,49.71747
1024403,268.6259,237.36,53.33121,49.88245
1024419,264.5608,238.7507,52.91182,50.0473
1024436,261.4999,239.9572,52.59057,50.1894
1024454,259.4529,240.8192,52.37306,50.29042
1024470,258.0384,241.58,52.22151,50.37922
1024487,256.3299,242.2359,52.03706,50.45551
1024503,254.7626,242.9019,51.86651,50.53271
1024520,253.7643,243.2353,51.75719,50.57127
1024537,252.8345,243.6249,51.6549,50.61626
1024554,252.6406,244.1097,51.63351,50.67211
1024570,253.269,244.6322,51.70276,50.73215
1024591,254.2381,244.9971,51.80914,50.774
1024608,254.9656,245.3074,51.88867,50.80952
1024620,255.8906,245.5551,51.98939,50.83783
1024637,257.4049,245.9999,52.15329,50.8886
1024653,258.9774,246.4156,52.32223,50.93594
1024671,260.7654,246.6552,52.51277,50.96318
1024687,263.0641,246.8392,52.75533,50.98409
1024704,265.1395,247.2756,52.97202,51.03358
1024720,267.2308,247.7836,53.1882,51.09106
1024737,269.6689,248.3604,53.43751,51.15615
1024754,272.149,249.1384,53.68814,51.24366
1024772,274.456,249.937,53.91864,51.33314
1024789,276.8884,250.6556,54.15894,51.41337
1024805,279.1013,251.254,54.37515,51.47995
1024821,281.1609,251.7486,54.57437,51.53484
1024838,283.0023,251.9404,54.75085,51.5561
1024854,285.0645,252.0693,54.94667,51.57037
1024871,287.0893,251.7708,55.1371,51.5373
1024888,288.8825,251.1666,55.30425,51.47025
1024905,290.4086,250.1073,55.44541,51.35218
1024923,291.4837,249.5187,55.54424,51.28632
1024938,292.2048,249.1956,55.61026,51.25009
1024953,292.736,248.8456,55.65874,51.21077
1024972,293.2783,248.3262,55.70812,51.1523
1024988,293.8079,247.8082,55.75622,51.09384
1025005,294.1783,247.5014,55.78979,51.05915
1025021,294.5638,247.3246,55.82467,51.03913
1025038,294.8326,247.1771,55.84895,51.02242
1025054,295.064,246.4809,55.86983,50.94337
1025071,295.4951,245.3482,55.90867,50.81418
1025089,296.0079,243.9471,55.95477,50.65339
1025106,296.7098,242.8594,56.01769,50.5278
1025124,297.497,242.0205,56.08802,50.43048
1025140,298.2239,241.6026,56.15273,50.38184
1025156,299.0562,241.31,56.22656,50.34774
1025173,300.0504,241.1074,56.31438,50.3241
1025189,301.1497,241.0282,56.41101,50.31485
1025207,302.3403,241.2194,56.51511,50.33717
1025224,303.384,241.2917,56.60591,50.34561
1025242,304.3595,241.3422,56.69038,50.3515
1025260,305.3217,241.2796,56.77333,50.3442
1025277,306.1154,241.2285,56.84148,50.33823
1025293,306.9941,241.2012,56.91663,50.33505
1025310,307.7586,241.1208,56.98178,50.32566
1025325,308.485,240.9915,57.04345,50.31055
1025342,309.171,240.8121,57.10153,50.28959
1025360,309.7729,240.8248,57.15233,50.29107
1025376,310.295,240.9304,57.19628,50.30342
1025393,310.652,241.1879,57.22628,50.33349
1025411,310.9315,241.3508,57.24972,50.3525
1025427,311.162,241.4971,57.26904,50.36956
1025441,311.3133,241.36,57.2817,50.35358
1025459,311.4449,241.3278,57.29272,50.34982
1025476,311.5356,241.558,57.3003,50.37666
1025493,311.6114,241.8381,57.30663,50.40926
1025509,311.5787,242.1305,57.3039,50.44326
1025525,311.468,242.1678,57.29465,50.4476
1025542,311.3634,242.2799,57.28589,50.46062
1025560,311.2581,242.5353,57.27709,50.49025
1025576,311.1835,242.7184,57.27084,50.51148
1025594,311.1425,242.6527,57.2674,50.50386
1025610,311.0762,242.6579,57.26185,50.50446
1025626,311.079,242.7825,57.26208,50.51889
1025643,311.0371,243.0462,57.25858,50.54942
1025659,311.0113,243.4968,57.25641,50.60148
1025676,310.9689,243.6769,57.25286,50.62225
1025692,310.985,243.6763,57.25421,50.62218
1025708,311.0933,243.5575,57.26328,50.60848
1025724,311.199,243.3759,57.27213,50.58752
1025743,311.3838,243.4789,57.2876,50.59941
1025759,311.54,243.6325,57.30067,50.61713
1025774,311.773,243.6624,57.32014,50.62059
1025792,311.9875,243.6752,57.33805,50.62207
1025809,312.2035,243.6481,57.35606,50.61893
1025825,312.4431,243.6548,57.37602,50.61971
1025842,312.6755,243.6444,57.39536,50.61851
1025858,312.9406,243.7,57.41739,50.62492
1025875,313.2766,243.7964,57.44529,50.63603
1025893,313.6068,243.7104,57.47266,50.62612
1025918,314.1309,243.4744,57.51602,50.5989
1025930,314.5628,243.3826,57.55167,50.5883
1025943,315.1247,243.4554,57.59795,50.59671
1025960,315.5972,243.4042,57.63678,50.59079
1025976,316.0583,243.1867,57.67459,50.56566
1025992,316.609,242.8475,57.71965,50.52642
1026011,317.1261,242.5011,57.76184,50.48629
1026027,317.5551,242.2654,57.79678,50.45893
1026042,317.9897,242.078,57.83211,50.43716
1026059,318.3889,242.0179,57.8645,50.43018
1026076,318.7862,241.9217,57.89667,50.41899
1026093,319.1851,241.7401,57.92892,50.39786
1026110,319.5603,241.6366,57.9592,50.38581
1026126,320.0438,241.2452,57.99814,50.34018
1026143,320.4785,240.4131,58.03308,50.24289
1026159,320.8585,239.1896,58.06357,50.09909
1026175,321.1603,237.4084,58.08775,49.8882
1026193,321.2973,236.4171,58.09871,49.77004
1026210,321.3738,236.0809,58.10483,49.72983
1026228,321.5151,236.0186,58.11613,49.72237
1026243,321.7193,236.0148,58.13244,49.72191
1026260,322.1519,235.9859,58.16695,49.71844
1026276,322.6577,235.9689,58.20721,49.71642
1026293,323.4202,236.256,58.26775,49.75077
1026313,324.1839,236.2955,58.32816,49.7555
1026327,325.0846,236.1195,58.39915,49.73445
1026346,326.0521,235.8504,58.47509,49.70222
1026364,327.2704,235.4779,58.57025,49.65754
1026378,328.3881,235.0759,58.6571,49.60923
1026394,329.5926,234.6111,58.75021,49.55325
1026412,330.7387,234.3651,58.83836,49.52358
1026430,331.7532,234.4181,58.916,49.52997
1026443,332.4941,234.679,58.97248,49.56144
1026460,333.0488,235.0648,59.01465,49.60789
1026477,333.6187,235.2705,59.05787,49.63263
1026494,334.232,235.2364,59.10426,49.62852
1026512,334.7319,235.0968,59.14197,49.61174
1026530,334.9087,235.0702,59.1553,49.60854
1026548,334.9234,235.0921,59.1564,49.61118
1026560,334.8275,234.9809,59.14917,49.5978
1026579,334.7762,234.8636,59.14531,49.58367
1026593,334.7184,234.8042,59.14096,49.57652
1026611,334.5547,235.0226,59.12861,49.60281
1026628,334.3839,235.0381,59.11573,49.60468
1026644,334.2166,234.6467,59.1031,49.55755
1026661,334.0215,235.1793,59.08834,49.62167
1026679,333.8362,235.6351,59.07433,49.67641
1026695,333.346,235.0981,59.0372,49.6119
1026712,333.1586,235.0753,59.02299,49.60916
1026729,332.9225,235.0153,59.00506,49.60193
1026746,332.5266,234.9613,58.97495,49.59544
1026764,332.0738,234.9758,58.94046,49.59718
1026780,331.5215,235.7251,58.89829,49.68719
1026798,330.8614,237.1843,58.84776,49.86153
1026814,330.0482,238.242,58.78531,49.98713
1026831,329.0721,238.0366,58.71004,49.96278
1026847,328.4281,237.2156,58.6602,49.86526
1026863,327.749,236.4154,58.60749,49.76982
1026881,327.0057,235.6175,58.54962,49.67429
1026898,326.234,235.0675,58.48934,49.60822
1026913,325.3745,234.0133,58.42195,49.48107
1026931,324.728,233.1103,58.37108,49.37163
1026948,324.2979,232.476,58.33716,49.29446
1026964,323.9046,232.0126,58.30609,49.23793
1026982,323.459,231.5995,58.27082,49.18744
1027004,323.0796,231.3561,58.24073,49.15762
1027017,322.7694,231.2979,58.21609,49.15049
1027029,322.417,231.3186,58.18806,49.15304
1027047,322.1741,231.5921,58.16872,49.18653
1027062,321.9276,231.821,58.14907,49.21452
1027080,321.6958,232.1438,58.13057,49.25395
1027096,321.3468,232.4226,58.10266,49.28796
1027116,320.9609,232.5669,58.07178,49.30554
1027131,320.5858,232.4433,58.04169,49.29048
1027146,320.2798,232.2647,58.01712,49.2687
1027163,320.0267,231.9973,57.99677,49.23606
1027182,319.8647,231.7293,57.98372,49.20331
1027197,319.7386,231.5176,57.97357,49.17741
1027217,319.6104,231.3952,57.96324,49.16241
1027233,319.5203,231.1424,57.95597,49.13143
1027250,319.4564,230.8048,57.95082,49.08999
1027265,319.419,230.3636,57.9478,49.03572
1027282,319.3394,229.9755,57.94138,48.98788
1027299,319.2591,229.7175,57.93489,48.95605
1027314,319.2083,229.5726,57.93079,48.93813
1027332,319.1322,229.4289,57.92465,48.92037
1027348,319.0301,229.2778,57.91639,48.90167
1027365,318.9438,229.2638,57.90942,48.89994
1027381,318.8986,229.232,57.90577,48.896
1027398,318.8465,229.4028,57.90155,48.91714
1027418,318.8037,229.4857,57.89809,48.9274
1027433,318.7902,229.5969,57.897,48.94114
1027449,318.7616,229.685,57.89468,48.95203
1027467,318.7218,229.7946,57.89146,48.96557
1027483,318.7384,229.7955,57.89281,48.96567
1027502,318.752,229.8151,57.8939,48.9681
1027517,318.7972,229.8134,57.89756,48.96788
1027532,318.8383,229.7983,57.90089,48.96603
1027551,318.874,229.8408,57.90377,48.97127
1027566,318.8765,229.8407,57.90398,48.97126
1027584,318.8615,229.6881,57.90276,48.95241
1027601,318.8362,229.6896,57.90072,48.9526
1027616,318.7843,229.5815,57.89652,48.93924
1027632,318.7463,229.5177,57.89344,48.93135
1027650,318.7129,229.4391,57.89074,48.92163
1027665,318.6895,229.4513,57.88885,48.92314
1027682,318.7257,229.3834,57.89178,48.91474
1027698,318.8317,229.4499,57.90035,48.92296
1027715,318.8842,229.4893,57.90461,48.92784
1027731,318.932,229.6054,57.90847,48.94219
1027748,318.9787,229.7408,57.91224,48.95892
1027765,318.9992,229.8367,57.9139,48.97076
1027780,319.0347,229.9069,57.91677,48.97942
1027798,319.048,229.9287,57.91784,48.98212
1027814,319.0185,229.9852,57.91546,48.98908
1027832,318.9823,229.8903,57.91253,48.97738
1027847,318.9225,229.8602,57.9077,48.97366
1027864,318.8732,229.7466,57.90371,48.95964
1027881,318.8238,229.6078,57.89972,48.94248
1027898,318.7661,229.4764,57.89505,48.92624
1027914,318.7603,229.2288,57.89458,48.8956
1027932,318.8175,229.0388,57.8992,48.87206
1027953,318.8605,228.8058,57.90268,48.84317
1027968,318.8924,228.6565,57.90527,48.82465
1027982,318.9211,228.4192,57.90759,48.79516
1027998,318.9683,228.0436,57.9114,48.74842
1028014,319.0171,227.7124,57.91535,48.70714
1028032,319.0642,227.3602,57.91916,48.66315
