Time Stamp(ms),Intersection,,Angle,
,x,y,x,y
645153,315.5974,249.751,57.6368,51.31234
645169.1,315.6566,249.7348,57.64165,51.31053
645183.9,315.8115,249.7144,57.65436,51.30824
645200.4,315.9893,249.7091,57.66894,51.30764
645218.4,316.1401,249.8047,57.68129,51.31835
645233.3,316.1857,250.0355,57.68502,51.34416
645250.6,316.2905,250.1111,57.6936,51.3526
645266.8,316.4897,250.0175,57.70989,51.34214
645286.9,316.7915,249.8069,57.73455,51.3186
645303.4,317.0231,249.568,57.75345,51.29185
645320.3,317.3107,249.4287,57.77689,51.27624
645333.8,317.5258,249.3475,57.7944,51.26712
645350.8,317.8384,249.1845,57.81982,51.24884
645367.3,318.1345,249.1614,57.84387,51.24625
645382.9,318.3904,249.2997,57.86462,51.26177
645400.4,318.54,249.3644,57.87674,51.26902
645417.6,318.6319,249.3592,57.88418,51.26844
645434.6,318.5676,249.1971,57.87898,51.25025
645451.6,318.4193,249.1515,57.86696,51.24513
645471.8,318.0987,249.1732,57.84096,51.24757
645487.1,317.6677,249.1021,57.80594,51.23959
645503.1,317.2987,249.0826,57.77592,51.23739
645519,316.7355,249.1545,57.72998,51.24548
645536.1,316.1531,249.2577,57.68236,51.25705
645553.1,315.5122,249.5312,57.6298,51.28772
645569.5,314.6496,250.0942,57.55883,51.35072
645585.4,313.8545,250.7188,57.49316,51.42041
645602.2,313.0157,251.4483,57.42364,51.50153
645619,312.3413,252.0717,57.36754,51.57063
645634.6,311.5597,252.666,57.30231,51.63631
645652.3,310.7372,253.2119,57.23343,51.69648
645667.3,310.0001,253.5755,57.17147,51.73646
645683.9,309.2818,253.8001,57.11089,51.76112
645701.1,308.4575,254.0038,57.04113,51.78347
645717.8,307.6433,254.305,56.97196,51.81647
645737.4,306.6597,254.4379,56.88807,51.83101
645754.3,305.7425,254.5603,56.80948,51.8444
645768.3,304.6537,254.5898,56.71578,51.84762
645783.9,303.0327,254.6434,56.57539,51.85348
645802.1,301.3058,254.8387,56.42469,51.87482
645818.6,298.8723,255.1674,56.21027,51.91068
645837.3,296.1241,255.3034,55.96521,51.92551
645853.3,293.2113,255.3077,55.70203,51.92597
645867.9,288.8491,255.2817,55.30115,51.92314
645885.3,284.1582,255.498,54.86084,51.9467
645901.5,278.7142,255.84,54.3375,51.98389
645919.9,271.5787,256.0853,53.63078,52.01052
645934.3,263.8321,256.1015,52.83577,52.01229
645955.4,256.1141,255.7657,52.01366,51.97582
645968.9,248.8549,255.4293,51.21181,51.93922
645988.6,241.4738,255.0914,50.36684,51.90239
646004.3,233.8994,254.8103,49.46729,51.87172
646021.1,226.4505,254.5996,48.54921,51.8487
646037.8,218.3225,254.4855,47.50795,51.83622
646054.4,210.831,254.7214,46.51018,51.862
646068.8,203.7092,255.1396,45.52641,51.90765
646085.1,196.9472,256.1613,44.55936,52.01878
646102.2,190.4817,257.2952,43.60365,52.14146
646119.4,185.2974,258.4633,42.8147,52.26715
646134.9,180.0865,260.1038,42.00091,52.44246
646152.5,175.1281,261.6331,41.2067,52.60464
646172.9,171.3026,262.9398,40.58048,52.74228
646188.7,167.4104,263.9394,39.93109,52.84698
646203.3,164.0097,264.6551,39.35341,52.92163
646222,161.1673,265.338,38.86313,52.99264
646239.8,158.7045,265.9848,38.43279,53.05967
646256.6,156.7901,266.5312,38.09468,53.11613
646275.4,155.2445,266.9989,37.81942,53.16434
646289.6,154.0568,267.2934,37.60649,53.19464
646306.9,153.5807,267.3207,37.52078,53.19745
646323.8,152.9935,267.4893,37.41482,53.21478
646339.8,153.1521,267.593,37.44347,53.22542
646357.4,153.3349,267.7561,37.47647,53.24216
646375,153.7113,267.8047,37.5443,53.24715
646396.2,154.5331,267.7964,37.69202,53.2463
646408.1,155.0695,267.8874,37.78813,53.25563
646422.6,155.6421,268.0221,37.89043,53.26944
646438.4,156.5394,268.3174,38.05018,53.29967
646460.4,157.1571,268.5295,38.15976,53.32137
646478.9,157.5926,268.7017,38.2368,53.33896
646489.6,158.2594,268.832,38.35445,53.35226
646505.9,158.6899,269.0909,38.43023,53.37867
646522.4,159.0909,269.3676,38.50064,53.40686
646541.2,159.4022,269.6881,38.55523,53.43946
646556.3,159.7601,269.9212,38.61789,53.46315
646573.2,160.1711,270.1541,38.68969,53.48678
646590.5,160.3744,270.4381,38.72515,53.51557
646610.7,160.4062,270.6214,38.73069,53.53412
646623.3,160.3519,270.7871,38.72123,53.55088
646640.4,160.2903,271.0186,38.71048,53.57428
646657.3,160.2803,271.3828,38.70873,53.61103
646673.5,160.3495,271.6277,38.72082,53.63571
646689.1,160.5814,271.7611,38.76123,53.64915
646709.1,160.7965,271.8371,38.79868,53.6568
646723.5,161.0114,272.0906,38.83604,53.68228
646738.3,161.2439,272.3711,38.87645,53.71045
646754.3,161.4958,272.6365,38.92014,53.73707
646771.8,161.9304,272.8463,38.99543,53.75808
646788.5,162.6853,273.1525,39.12582,53.78872
646806.6,163.3318,273.3861,39.23711,53.81207
646821.3,164.1447,273.7252,39.37653,53.84591
646838.7,164.8427,273.9076,39.4958,53.86408
646854.7,165.6195,274.0536,39.62807,53.87862
646870.9,166.309,274.1249,39.74505,53.88572
646887.9,166.9731,274.251,39.85735,53.89826
646904.6,167.4474,274.3263,39.93731,53.90575
646921,167.7079,274.4906,39.98116,53.92208
646939.6,167.7873,274.6258,39.99452,53.9355
646956.4,167.6013,274.6414,39.96323,53.93705
646972.5,167.5314,274.675,39.95145,53.9404
646988.6,167.4865,274.8185,39.9439,53.95464
647006.4,167.3954,275.0175,39.92856,53.97436
647022.1,167.347,275.1538,39.92041,53.98787
647038.4,167.2643,275.3292,39.90647,54.00523
647057.8,167.0879,275.5636,39.87671,54.02841
647076.5,167.0225,275.6726,39.86568,54.03918
647092.2,167.1848,275.7129,39.89305,54.04316
647109.1,167.3803,275.8901,39.92601,54.06065
647122.6,167.6392,276.1618,39.9696,54.08745
647138.9,167.9416,276.5459,40.02045,54.12527
647155.7,168.244,276.7804,40.07122,54.14833
647172,168.7932,276.8459,40.16322,54.15477
647190.8,169.3026,277.0365,40.24834,54.17348
647209.8,169.7817,277.2823,40.32821,54.1976
647223.7,170.2501,277.592,40.4061,54.22793
647241.9,170.6205,277.8223,40.46759,54.25047
647256.9,170.9591,278.0522,40.52367,54.27294
647274,171.3051,278.3065,40.58089,54.29776
647291.9,171.6864,278.3898,40.64385,54.30588
647308.7,171.9797,278.3444,40.69218,54.30146
647324.3,172.1561,278.3813,40.72123,54.30506
647340.4,172.3268,278.4366,40.7493,54.31045
647358.1,172.4819,278.4493,40.77479,54.31169
647373.8,172.6296,278.4233,40.79905,54.30915
647389.3,172.8142,278.3616,40.82934,54.30313
647405.8,172.9833,278.3561,40.85707,54.3026
647423.3,173.1329,278.3198,40.88157,54.29906
647439.4,173.213,278.3747,40.8947,54.30442
647460.4,173.3667,278.3688,40.91983,54.30384
647477.1,173.4762,278.4233,40.93774,54.30915
647488.8,173.6979,278.4412,40.97397,54.31089
647508.3,173.9388,278.5786,41.01329,54.32429
647524.9,174.1559,278.64,41.04868,54.33027
647540.3,174.4157,278.7729,41.09098,54.34322
647556.8,174.7332,278.9136,41.14261,54.35691
647574.1,175.1147,279.005,41.20454,54.3658
647591.1,175.6492,279.0204,41.29108,54.36729
647607.6,176.1839,279.1338,41.37746,54.37831
647624,176.7034,279.2123,41.46114,54.38594
647641.1,177.2165,279.2121,41.54359,54.38593
647658.1,177.8587,279.0925,41.64648,54.3743
647673.9,178.7386,279.0129,41.78694,54.36656
647691.8,179.677,279.0055,41.93605,54.36584
647707.9,181.1286,278.8429,42.16534,54.35003
647724.4,182.6247,278.5927,42.39994,54.32567
647740.9,185.1715,278.0978,42.79529,54.27739
647758.8,188.2298,277.6198,43.26345,54.23065
647773.8,194.2751,276.5072,44.16812,54.12146
647792.8,201.3867,275.4678,45.19794,54.01894
647810.4,210.6027,274.6303,46.47918,53.93595
647826.8,223.6997,273.8026,48.20151,53.85362
647843.3,235.4406,272.5725,49.65306,53.73065
647862.1,246.5359,271.0922,50.94963,53.58171
647879.4,256.5949,269.7386,52.06577,53.4446
647894.9,266.3034,268.6995,53.09261,53.33874
647912.9,275.0988,268.1597,53.98241,53.28353
647928.6,284.6349,268.0485,54.90603,53.27214
647948.1,294.2136,268.2907,55.79298,53.29694
647965.1,302.2275,268.4355,56.50528,53.31176
647980.2,309.9758,268.7297,57.16942,53.34182
647996.2,317.9375,269.1084,57.82787,53.38046
648012.8,325.6157,269.3909,58.44088,53.40923
648028.1,333.7403,269.799,59.06708,53.45073
648046,341.7547,270.3416,59.66319,53.50579
648061.9,349.8803,270.7167,60.24667,53.54377
648079.3,357.8306,270.8868,60.79814,53.56096
648095.6,366.5393,270.9375,61.38117,53.56609
648113.1,374.6479,270.8065,61.90516,53.55285
648130.1,382.209,270.706,62.37811,53.54268
648145.9,389.1547,270.8977,62.79981,53.56207
648161.4,396.7026,271.4773,63.24477,53.62056
648179.4,401.9695,271.8189,63.54735,53.65496
648194.3,407.7669,272.16,63.87315,53.68925
648213.3,413.2693,272.3316,64.17552,53.70649
648229.6,417.8025,272.3563,64.41979,53.70896
648254.1,422.7755,272.5197,64.68284,53.72536
648269.8,426.234,272.5295,64.86282,53.72635
648281.9,428.6719,272.393,64.98825,53.71265
648295.2,431.3326,272.2025,65.12383,53.69352
648312.8,432.9574,271.9159,65.20593,53.66472
648328.4,435.19,271.8455,65.31793,53.65763
648355.8,436.0947,272.1724,65.36305,53.6905
648368.3,436.8932,272.3232,65.40274,53.70564
648380.5,437.331,272.5114,65.42446,53.72453
648395.9,437.5804,272.7049,65.43681,53.74392
648411,437.6135,273.0552,65.43845,53.77899
648431.4,437.4213,273.383,65.42893,53.81175
648446.1,436.9167,273.9406,65.40391,53.86736
648463,436.4689,274.3661,65.38167,53.90971
648478.5,435.9777,274.6573,65.35722,53.93864
648493.9,435.4064,274.7788,65.32874,53.9507
648513.6,435.0702,274.7567,65.31195,53.94849
648528.1,434.6891,274.7321,65.29289,53.94606
648546.8,434.2938,274.6771,65.27309,53.9406
648562.5,433.8684,274.4775,65.25175,53.92078
648579.8,433.3655,274.0237,65.22648,53.87564
648594.9,432.8413,273.6265,65.20008,53.83606
648613.2,432.3962,273.2038,65.17764,53.79385
648630.2,431.9131,272.8299,65.15321,53.75644
648646.4,431.4602,272.521,65.13029,53.72549
648663.2,431.0133,272.1165,65.10763,53.68489
648679.3,430.5247,271.7421,65.0828,53.64723
648695,430.0108,271.4791,65.05664,53.62074
648714.6,429.5944,271.3672,65.03542,53.60947
648729,429.1498,271.274,65.0127,53.60007
648745.6,428.5205,271.14,64.9805,53.58654
648763.3,427.8639,271.0151,64.94681,53.57393
648780.9,427.2259,270.8878,64.91399,53.56106
648796.6,426.5654,270.8606,64.87994,53.55831
648812.3,425.9457,270.7432,64.84791,53.54644
648832.5,425.3202,270.6696,64.8155,53.539
648850.7,424.6486,270.2622,64.78062,53.49774
648863.7,423.9568,269.516,64.74458,53.42196
648880.3,423.445,268.1163,64.71787,53.27909
648897.5,422.9587,266.9271,64.69244,53.15694
648913.9,422.5636,266.0463,64.67174,53.06602
648931.6,422.1489,265.46,64.64997,53.0053
648947.2,421.6298,264.7679,64.62268,52.93339
648962.3,420.8723,263.7331,64.58276,52.82541
648979.6,420.119,262.9285,64.54295,52.74109
648996.1,419.3683,262.2675,64.50317,52.67157
649012.3,418.5429,261.9425,64.45927,52.63732
649030.9,417.7721,261.5723,64.41817,52.59822
649045.9,416.8817,260.9621,64.37052,52.53363
649062.1,415.9591,260.3209,64.32098,52.46555
649079.2,415.0197,259.8556,64.27036,52.41602
649095.1,413.9405,259.4604,64.21197,52.37386
649113.2,412.9759,259.0776,64.15957,52.33295
649131,411.9852,258.5049,64.10555,52.2716
649146.6,410.8153,257.6996,64.04148,52.18506
649163.4,409.7596,256.918,63.98341,52.10073
649181,408.7816,256.3489,63.9294,52.03912
649196,407.8217,255.9274,63.87619,51.99338
649212.3,406.9155,255.5528,63.82577,51.95265
649229.6,405.9082,254.9573,63.76951,51.88776
649247.7,404.9955,254.3057,63.71833,51.81654
649263.1,404.223,253.8901,63.67488,51.77099
649279.4,403.4723,253.5793,63.63252,51.73688
649295.6,402.5544,253.2397,63.58056,51.69954
649316.8,401.6862,252.7944,63.53124,51.65048
649331.9,400.7212,251.918,63.47621,51.55362
649349.3,399.7182,250.7177,63.41879,51.42028
649365.9,398.6939,249.3607,63.35992,51.26862
649381.1,397.495,247.7185,63.2907,51.08371
649399.1,396.2039,245.8524,63.21579,50.87178
649413,394.5229,243.5351,63.11766,50.6059
649431.1,392.9816,241.3487,63.02711,50.35225
649448.9,391.0263,238.2617,62.91141,49.98946
649467.1,388.9447,234.4258,62.78723,49.5309
649480.9,386.69,229.2172,62.65154,48.89417
649498.9,383.8727,219.8051,62.48022,47.70104
649514.7,380.8069,206.5659,62.29152,45.92523
649533.6,378.1847,195.8722,62.12823,44.4026
649552.4,375.828,186.2693,61.97995,42.96416
649572.4,373.7294,176.5458,61.84669,41.43578
649588.3,371.8222,167.9842,61.72457,40.0276
649601.6,370.0345,161.9539,61.60921,38.9995
649616.4,367.6669,157.5987,61.45511,38.23788
649635.2,364.7008,158.4247,61.25987,38.38356
649651.4,362.0882,158.1625,61.08587,38.33739
649664.1,359.5074,156.0929,60.91208,37.97077
649680.8,357.5291,153.3875,60.77757,37.48595
649701.3,356.1926,150.9413,60.68605,37.04208
649718.1,355.2465,148.8518,60.62095,36.6588
649732.7,353.8915,146.3374,60.52726,36.19246
649751.4,352.5578,144.5491,60.4345,35.85735
649767.3,351.3014,144.1666,60.34663,35.78532
649781.5,350.1045,143.5592,60.26249,35.67064
649798.2,349.0303,142.7966,60.1866,35.5262
649814.8,347.9512,142.137,60.11,35.40084
649834.5,346.9687,141.8215,60.03996,35.34073
649849.7,345.9586,141.7361,59.96763,35.32446
649866.4,344.9348,141.2096,59.89399,35.22392
649882.6,343.6966,140.6005,59.8045,35.10732
649901.4,342.5691,140.0742,59.7226,35.00628
649917.7,341.4892,139.7041,59.64377,34.93508
649932.5,340.0832,139.2839,59.54058,34.8541
649951.6,338.8663,138.7568,59.45076,34.7523
649967.3,337.6212,137.9839,59.35836,34.60255
649982.6,336.1905,137.0509,59.25155,34.42106
650003.8,334.7441,136.1675,59.14289,34.2485
650018.3,333.5516,135.3156,59.05279,34.08141
650032.5,332.0284,134.124,58.937,33.84659
650050.7,330.459,132.751,58.81689,33.57442
650066.4,328.1916,131.1271,58.64186,33.25028
650083.2,325.0892,129.2933,58.39952,32.88131
650100.4,318.5886,126.1649,57.88068,32.24473
650117,309.6581,123.3568,57.14265,31.66562
650133.6,296.4973,120.9526,55.99866,31.16399
650150.6,276.7722,118.9053,54.14752,30.73261
650166.3,258.5651,116.5186,52.27806,30.22478
650183.1,242.4581,114.1562,50.4813,29.7169
650202.8,228.4412,111.6597,48.7979,29.17455
650218.3,220.7288,110.347,47.82061,28.88705
650231.8,211.2727,108.8464,46.57005,28.55644
650250.2,205.5257,108.84,45.78067,28.55503
650266.6,198.835,108.5941,44.83265,28.50067
650283.6,195.0115,109.5292,44.27646,28.70713
650300.3,191.7345,110.4272,43.79125,28.90467
650318,191.4932,112.2776,43.75521,29.30933
650335.3,190.2041,113.9588,43.56192,29.67423
650353.7,189.1674,115.5617,43.40557,30.01969
650368.1,188.4607,116.9933,43.29852,30.3262
650385.3,187.5696,117.8829,43.163,30.51571
650402.2,186.8926,118.5195,43.05963,30.65087
650418,186.2472,119.3629,42.96077,30.82936
650435.6,185.1302,120.4299,42.78891,31.05423
650456.4,183.6497,121.791,42.55966,31.33953
650477.3,181.9152,123.2816,42.2889,31.65002
650489.3,180.6906,124.5425,42.09633,31.91104
650501.4,179.1402,126.4425,41.85084,32.30158
650519.3,177.6902,128.1806,41.61952,32.65593
650536.4,176.2432,129.845,41.38701,32.99265
650552.9,175.0916,130.9427,41.20079,33.21332
650571,174.4012,131.4907,41.08862,33.32305
650585.9,174.277,131.5569,41.0684,33.3363
650602.3,174.1715,131.92,41.05122,33.40884
650620.6,174.2734,132.7013,41.06781,33.56454
650637.8,174.1648,133.5389,41.05013,33.73083
650654.1,173.8923,134.1253,41.0057,33.84685
650670.8,173.5623,134.3793,40.95182,33.89701
650685.8,173.2128,134.7927,40.89465,33.97853
650703.9,172.7799,135.2957,40.82372,34.07751
650720.9,172.3831,135.9641,40.75856,34.20866
650738.4,172.1168,136.5043,40.71476,34.31439
650753.4,171.8615,137.0923,40.67272,34.42913
650770.3,171.6207,137.7295,40.633,34.55313
650787.9,171.3397,138.3351,40.58662,34.67066
650803.9,170.9306,138.9465,40.51896,34.78896
650819.9,170.5439,139.545,40.45488,34.90444
650837,170.175,140.273,40.39363,35.04448
650854,170.021,140.8113,40.36802,35.14772
650869.5,169.9374,141.3877,40.35413,35.25797
650887.8,170.0325,142.0659,40.36994,35.3873
650907.1,170.0279,142.6306,40.36918,35.49469
650921.9,170.1297,143.1524,40.38611,35.59365
650938.2,170.2256,143.6079,40.40203,35.67984
650953.3,170.3442,144.1713,40.42173,35.78619
650970.8,170.2626,144.9334,40.40819,35.9296
650989.1,169.9469,145.9452,40.35571,36.1192
651008.3,169.7583,146.6876,40.32432,36.25773
651020.6,169.3227,147.6013,40.2517,36.42756
651040.1,168.9938,148.3857,40.19677,36.57278
651058.4,168.7628,149.3514,40.15815,36.75079
651076,168.4886,150.3241,40.11223,36.92927
651091.1,168.1476,151.5972,40.05504,37.16162
651104.6,167.8905,153.0088,40.01186,37.41758
651121,167.7024,154.6693,39.98024,37.71645
651139.8,167.9399,156.9333,40.02017,38.12009
651156.1,168.5789,159.7789,40.12735,38.62117
651174.7,169.861,163.5918,40.34141,39.28176
651189.6,172.2886,169.1196,40.74302,40.21779
651206.9,174.6871,174.1731,41.13512,41.05148
651223.4,177.2508,179.7767,41.5491,41.95185
651238.8,180.2992,187.0865,42.03454,43.08927
651258.2,182.8796,194.8989,42.43974,44.25992
651276.1,184.668,200.7368,42.71753,45.10534
651290.4,186.6568,206.8557,43.02356,45.96537
651309.5,188.1145,211.7321,43.24594,46.63217
651322.6,189.4728,216.5856,43.45171,47.27993
651340.2,190.8135,221.5739,43.65345,47.92953
651363.8,191.4367,224.4736,43.74677,48.29982
651375.1,191.7127,226.5884,43.788,48.56652
651389.9,191.9434,229.0096,43.82242,48.86845
651407.3,191.785,230.802,43.79878,49.08964
651422.1,191.8571,233.077,43.80954,49.36759
651439.8,191.7441,235.0578,43.79268,49.60705
651456.6,191.7379,237.132,43.79176,49.85531
651472.6,192.1457,239.5378,43.85258,50.14011
651488.9,192.9746,242.4282,43.97581,50.47783
651507.4,194.4376,245.5156,44.19207,50.83332
651522.7,196.0227,248.7844,44.42459,51.20388
651540.2,198.0566,251.6621,44.72027,51.52526
651556.9,199.8072,253.9518,44.97237,51.77776
651572.7,201.5986,256.4814,45.22808,52.05347
651589,203.5148,259.7484,45.49906,52.4046
651610.1,204.406,261.4775,45.62421,52.5882
651622.5,204.943,262.5609,45.69936,52.70247
651639.4,205.5171,263.5148,45.77946,52.80257
651657.4,205.9963,264.0916,45.84616,52.86288
651672.7,206.3598,264.3685,45.89664,52.89178
651690.1,206.6469,264.8644,45.93645,52.94343
651707.5,206.4712,265.1515,45.91209,52.97327
651723.2,206.2092,265.5705,45.87574,53.01675
651738.9,205.7381,266.1336,45.81024,53.07506
651758,205.0167,266.6407,45.70966,53.12743
651775.9,204.4663,266.9345,45.63266,53.15771
651791.7,203.9182,267.2124,45.55578,53.18631
651806.8,203.2467,267.6602,45.4613,53.23232
651823.5,202.6292,268.1604,45.37413,53.2836
651842.1,201.9662,268.7228,45.28025,53.34111
651859.4,201.3514,269.1663,45.19292,53.38635
651875.6,200.8362,269.5995,45.11952,53.43046
651891.8,200.3139,269.9897,45.04492,53.4701
651906.3,199.785,270.4238,44.96919,53.51412
651927.9,199.2489,270.7472,44.89221,53.54685
651942,198.8007,271.167,44.8277,53.58926
651957.9,198.4074,271.4734,44.77097,53.62016
651974.9,198.1451,271.5585,44.73307,53.62874
651991.6,197.8961,271.6852,44.69705,53.64151
652008.3,197.7512,271.8137,44.67606,53.65444
652021.4,197.6514,271.8649,44.6616,53.65958
652038.4,197.6007,271.8782,44.65426,53.66093
652056.5,197.5447,271.9281,44.64613,53.66594
652071.6,197.5461,271.9965,44.64634,53.67282
652089.6,197.4916,272.0677,44.63844,53.67999
652104.6,197.4199,272.14,44.62804,53.68725
652121.4,197.3433,272.1641,44.61692,53.68966
652139.8,197.2636,272.2449,44.60535,53.69778
652155,197.2095,272.3842,44.5975,53.71177
652174,197.3771,272.2671,44.62183,53.70001
652189.5,197.3257,272.3818,44.61436,53.71152
652209,197.25,272.4772,44.60337,53.72109
652225,197.1832,272.5633,44.59366,53.72973
652240.8,197.112,272.6259,44.58333,53.736
652257.7,196.9799,272.7185,44.56412,53.74529
652272.6,196.8177,272.8123,44.54052,53.75468
652289.9,196.6769,272.8688,44.52002,53.76033
652306.6,196.5421,272.9002,44.50039,53.76348
652323.6,196.3306,272.9532,44.46954,53.76879
652339.9,196.2124,273.005,44.4523,53.77397
652356.4,196.0875,273.0934,44.43406,53.78281
652375.1,196.0575,273.1537,44.42967,53.78884
652392.4,196.006,273.339,44.42215,53.80735
652407.6,196.0333,273.5106,44.42614,53.82449
652423.5,196.1199,273.6615,44.4388,53.83955
652440.9,196.2634,273.7136,44.45974,53.84475
652456.4,196.513,273.8166,44.49614,53.85501
652480.1,196.7588,274.0058,44.53195,53.87386
652497.6,197.0075,274.0615,44.56814,53.87941
652509.7,197.3531,274.1169,44.61834,53.88492
652527,197.85,273.9984,44.69037,53.87313
652539.7,198.656,273.9429,44.80684,53.8676
652558.8,199.3368,273.8684,44.90485,53.86017
652577.8,199.9616,273.4966,44.9945,53.82309
652594.2,200.5515,272.8154,45.07888,53.75499
652610.5,201.1328,272.7728,45.16181,53.75072
652623.8,201.5606,273.3684,45.22268,53.8103
652640.6,202.3035,273.4901,45.32805,53.82244
