Time Stamp(ms),Intersection,,Angle,
,x,y,x,y
734247.3,323.3892,220.1214,58.26529,47.74205
734264.1,323.6627,218.8631,58.28695,47.57852
734279.9,323.9106,217.6984,58.30657,47.42625
734295.4,324.1081,216.4714,58.32217,47.26486
734315.9,324.2629,215.4424,58.3344,47.12876
734330.9,324.4557,214.5701,58.34962,47.01283
734349.8,324.608,213.8838,58.36163,46.92128
734363.6,324.6127,213.2812,58.362,46.84062
734379.8,324.5778,212.6166,58.35924,46.75139
734395.9,324.473,211.9674,58.35098,46.66394
734412.3,324.2716,211.4926,58.33509,46.5998
734429.6,324.0438,210.8339,58.3171,46.51057
734444.8,323.6999,209.8946,58.2899,46.38281
734462.8,323.3801,208.8683,58.26456,46.24254
734480.5,323.1208,207.8842,58.24401,46.10735
734496.1,322.9203,206.8065,58.22808,45.95856
734513.4,322.6723,205.5157,58.20838,45.77927
734532.4,322.4817,204.7234,58.19322,45.66866
734545.6,322.2042,203.722,58.17112,45.52821
734564.2,321.9367,202.9779,58.14979,45.42339
734580.2,321.5951,202.0123,58.12252,45.28679
734597.1,321.2735,200.5866,58.09681,45.08391
734613.5,320.9716,198.9823,58.07264,44.85386
734629.6,320.6725,197.2967,58.04865,44.61015
734649.2,320.4423,196.1921,58.03017,44.44933
734664,320.1804,194.8863,58.00913,44.25807
734681.3,319.8907,193.6211,57.98582,44.07156
734696.3,319.5752,192.465,57.9604,43.9001
734712.7,319.2161,191.8633,57.93142,43.81047
734730.1,318.8842,191.358,57.9046,43.73499
734746.9,318.5115,190.6914,57.87443,43.63513
734763.7,317.9489,189.8845,57.8288,43.51381
734780.1,317.3442,189.0176,57.77962,43.3829
734796.1,316.6147,188.3867,57.72011,43.28729
734812.6,315.6757,187.8409,57.64322,43.20432
734831.4,314.8515,187.4011,57.57547,43.13731
734847.8,314.1389,186.7363,57.51668,43.03572
734862.5,313.585,185.7451,57.47085,42.88364
734881.7,313.2549,184.6442,57.44349,42.71385
734899.6,312.9418,183.6507,57.4175,42.55981
734913.5,312.6564,182.4326,57.39377,42.36992
734931.4,312.4091,180.7619,57.37319,42.10758
734947.9,312.1594,179.2278,57.35238,41.86475
734964.6,311.8542,178.0519,57.32692,41.67738
734982.4,311.533,177.1925,57.30008,41.53975
734998.9,311.167,176.2121,57.26945,41.382
735013.8,310.7086,174.6084,57.23102,41.12233
735035.1,310.4074,173.1237,57.20573,40.88008
735049.3,310.2198,171.4819,57.18995,40.6101
735065.3,310.1098,169.7022,57.1807,40.31497
735081.9,309.9597,167.7138,57.16807,39.98215
735099.3,310.0088,165.5385,57.1722,39.6143
735115,309.9581,163.7922,57.16793,39.31614
735133.5,309.8937,162.3694,57.16251,39.07132
735148.6,309.7683,160.6315,57.15194,38.76994
735165.2,309.7602,158.5328,57.15126,38.4026
735183.6,309.8571,156.3788,57.15942,38.02163
735199,310.056,154.6671,57.17617,37.71606
735217.3,310.1933,153.1184,57.18773,37.43739
735233.7,310.4037,151.3019,57.20542,37.10785
735251.1,310.5587,149.1876,57.21843,36.72066
735268,310.7828,147.2498,57.23725,36.36232
735283.3,311.0024,145.7206,57.25566,36.07719
735298.7,311.2775,144.1003,57.27871,35.7728
735314.7,311.6622,142.0249,57.31088,35.37949
735332.3,312.0635,139.8973,57.34439,34.97227
735351,312.5026,138.0233,57.38097,34.6102
735366.9,313.0005,136.3188,57.42237,34.2781
735382.5,313.5162,134.5268,57.46516,33.92612
735399.8,314.0818,132.8436,57.51197,33.59283
735416,314.6381,131.1744,57.55788,33.25974
735431.6,315.1461,129.6238,57.59971,32.94804
735450.3,315.686,128.1725,57.64407,32.6543
735466.1,316.176,126.9904,57.68423,32.41359
735482.6,316.693,125.8764,57.72651,32.18558
735499.5,317.1519,124.7664,57.76395,31.95724
735518.3,317.5487,123.7221,57.79627,31.74136
735535.6,317.8239,123.0699,57.81865,31.60604
735552.3,318.1241,122.3705,57.84302,31.46048
735566.9,318.3263,121.7758,57.85942,31.33636
735588.8,318.5114,121.1922,57.87443,31.21424
735601.3,318.6666,120.6945,57.88699,31.10982
735618.3,318.8197,120.1725,57.89938,31.00008
735634.6,318.9146,119.632,57.90706,30.88618
735654.7,319.0336,119.2645,57.91668,30.80858
735671.4,319.1117,118.9742,57.92299,30.74719
735684.4,319.1591,118.7575,57.92682,30.70131
735702.9,319.2032,118.3522,57.93039,30.6154
735719.8,319.2722,117.9747,57.93596,30.53522
735735.1,319.3272,117.6491,57.94039,30.46597
735753.6,319.362,117.5009,57.9432,30.43443
735768.7,319.3811,117.1958,57.94475,30.36941
735801.6,319.4527,116.8236,57.95052,30.28997
735820.3,319.4974,116.6108,57.95412,30.2445
735836.6,319.5266,116.6314,57.95649,30.24891
735850.3,319.5498,116.747,57.95835,30.27361
735864.6,319.6191,116.7964,57.96394,30.28416
735879.1,319.6863,116.6565,57.96936,30.25426
735895.1,319.8394,116.2342,57.98169,30.16391
735912.1,319.9725,115.9845,57.9924,30.11041
735924.3,320.0376,116.016,57.99764,30.11717
735936.1,320.0541,116.204,57.99897,30.15746
735951.4,319.9958,116.6766,57.99427,30.25855
735969.2,319.9263,117.0423,57.98869,30.33667
735985.3,319.8585,117.3067,57.98323,30.39305
736002.9,319.7716,117.5585,57.97623,30.4467
736019.6,319.6862,117.8447,57.96935,30.5076
736035.8,319.5114,118.2303,57.95526,30.58953
736053.2,319.3696,118.5812,57.94382,30.66396
736068,319.1722,118.8594,57.92788,30.72288
736084.4,319.0126,119.0676,57.91498,30.76695
736101.7,318.8581,119.3309,57.90249,30.82261
736117.6,318.6882,119.5447,57.88874,30.86776
736136,318.5286,119.7338,57.87582,30.90765
736152,318.3756,119.8844,57.86342,30.9394
736166.9,318.1977,119.9462,57.849,30.95243
736188.9,318.0406,119.9466,57.83625,30.9525
736202.4,317.8947,120.0748,57.82439,30.9795
736220.6,317.7377,120.1088,57.81164,30.98666
736236,317.6003,120.2551,57.80046,31.01746
736253.4,317.4464,120.3777,57.78794,31.04326
736269.5,317.5719,120.3346,57.79816,31.0342
736285.9,317.5156,120.3948,57.79357,31.04685
736305,317.4211,120.5209,57.78588,31.07335
736320.1,317.3149,120.7271,57.77724,31.11668
736340,317.206,120.9272,57.76836,31.15867
736352.7,317.1158,121.2086,57.76101,31.21767
736367.5,316.9206,121.4865,57.74508,31.27584
736385.1,316.7865,121.8969,57.73414,31.36167
736402.3,316.5622,122.4163,57.71582,31.47002
736420.6,316.3696,122.7787,57.70007,31.54548
736436.7,316.2094,123.04,57.68696,31.59982
736451.1,316.079,123.4219,57.67628,31.67913
736468.6,315.982,123.7417,57.66833,31.74544
736488.4,315.8608,124.134,57.65841,31.82664
736504.4,315.7666,124.41,57.65068,31.88367
736521.6,315.6759,124.7582,57.64324,31.95554
736537.2,315.6465,125.0213,57.64083,32.00976
736553.2,315.644,125.389,57.64062,32.08545
736570.9,315.6835,125.7993,57.64387,32.16975
736587,315.7387,126.4283,57.64839,32.29868
736604.1,315.7167,127.0193,57.64658,32.41949
736620.1,315.6916,127.7607,57.64453,32.57059
736636.7,315.7019,128.5215,57.64537,32.7251
736653.1,315.6158,129.3828,57.63831,32.89939
736670.6,315.1859,130.8177,57.60299,33.18824
736687.1,314.4215,132.7365,57.54002,33.57154
736703.9,313.3699,135.3719,57.45303,34.09248
736720.3,311.7719,140.1476,57.32005,35.02039
736740.5,310.193,145.9144,57.1877,36.11345
736755.8,308.9948,150.5411,57.08663,36.96898
736771.3,307.1155,158.1674,56.92699,38.33825
736790.7,305.3343,165.4706,56.77441,39.60275
736805.6,303.7664,171.9749,56.63907,40.69139
736820.4,302.177,178.8252,56.50087,41.80072
736836.3,300.4592,186.2664,56.35037,42.96371
736852.9,298.6323,194.4667,56.189,44.19635
736873.9,297.1325,201.5119,56.05549,45.21576
736889.5,295.6635,208.7177,55.92383,46.2219
736906.1,294.2412,215.1181,55.79549,47.08572
736922.1,292.7319,221.3891,55.65837,47.90576
736938.6,290.9529,227.227,55.49551,48.64651
736954.5,288.9607,233.397,55.31151,49.40643
736971.6,285.9501,240.3234,55.03019,50.23237
736991.1,282.4544,246.8645,54.6985,50.98695
737004.9,278.025,253.1812,54.27028,51.6931
737021.8,271.837,259.0453,53.65678,52.32951
737038.9,266.1008,263.3987,53.07166,52.79041
737054.6,259.4601,266.3341,52.37384,53.09578
737072.9,253.8421,268.694,51.76573,53.33818
737090.4,248.8043,270.6051,51.20613,53.53247
737106,244.3388,271.9601,50.69845,53.66917
737122.8,239.7778,273.9055,50.16833,53.86387
737139.5,235.2117,275.7994,49.62556,54.0517
737156.1,231.0605,277.5829,49.12138,54.22704
737173.7,227.2234,279.7198,48.64605,54.43518
737190.5,223.5619,282.1363,48.18397,54.66804
737208.2,220.2749,284.4531,47.76192,54.88881
737223.9,217.407,286.6542,47.38801,55.09634
737240.8,214.266,289.0587,46.97231,55.3206
737260.6,212.0832,290.8102,46.67956,55.48238
737274,209.6923,292.7276,46.35522,55.65798
737293.9,208.423,293.8225,46.18146,55.75755
737309.6,207.0642,295.0344,45.99422,55.86716
737321.6,205.572,296.6115,45.78712,56.00889
737343.5,204.4812,298.0525,45.63475,56.13749
737359.1,203.4936,299.145,45.49608,56.23442
737372.6,202.7857,300.0072,45.39626,56.31057
737391.9,202.3163,300.7009,45.32987,56.37161
737410.9,202.6568,300.9357,45.37804,56.39223
737426.8,202.9321,301.3016,45.41692,56.42432
737441.3,203.5481,301.4714,45.50375,56.43919
737457.5,204.0101,301.5017,45.56868,56.44184
737475.3,204.573,301.4164,45.64761,56.43438
737490.8,205.4722,301.1051,45.77321,56.4071
737507.6,206.3176,301.088,45.89079,56.4056
737526.1,207.3533,301.3982,46.03416,56.43279
737542.4,208.0609,301.7195,46.13168,56.46091
737560.1,208.7948,302.035,46.23247,56.48847
737581.6,209.4597,302.3033,46.32346,56.51188
737593.6,210.0078,302.6428,46.39825,56.54147
737608.1,210.6012,303.1658,46.47897,56.58697
737624.2,211.2803,303.995,46.57108,56.65886
737647.6,211.616,304.2347,46.61648,56.67959
737660.6,211.8319,304.3247,46.64565,56.68737
737672.4,211.9908,304.1644,46.6671,56.67352
737690,212.1104,304.0082,46.68323,56.66001
737707.9,212.0737,304.0886,46.67827,56.66696
737723.8,211.8752,304.6998,46.6515,56.71975
737739.9,211.48,305.5322,46.5981,56.79142
737756.3,210.9184,306.4122,46.52203,56.86689
737773.6,210.4891,306.9132,46.46375,56.90972
737792.6,210.3016,307.2975,46.43825,56.94251
737808.5,210.1666,307.6853,46.41987,56.97554
737825.6,210.0136,308.0829,46.39903,57.00934
737842.3,209.9351,308.5004,46.38834,57.04476
737858.1,210.0222,308.7554,46.4002,57.06637
737873.6,210.2471,309.0987,46.43084,57.09542
737893.1,210.6998,309.4983,46.49236,57.12917
737908.9,211.3243,309.9991,46.57703,57.17138
737929.5,212.3256,310.4714,46.71222,57.21111
737941.6,213.2977,310.8741,46.84283,57.24491
737960.6,214.455,311.3266,46.99751,57.28282
737975.8,215.8009,311.9865,47.17626,57.33796
737991.3,216.9594,312.7114,47.32917,57.39834
738008.4,217.8918,313.5589,47.4516,57.46869
738024.7,218.6314,314.4565,47.54829,57.54291
738041.3,219.3499,315.0475,47.6419,57.5916
738060.4,220.1196,315.0909,47.74181,57.59518
738075.3,220.9876,314.8958,47.85401,57.57911
738090.9,222.2712,314.2385,48.01906,57.52491
738109.3,223.5706,313.4452,48.18508,57.45927
738127.1,224.9906,312.2782,48.36527,57.36228
738144.1,227.1293,310.244,48.63428,57.19199
738159.2,229.992,308.1611,48.98993,57.01598
738176.1,235.2124,305.3997,49.62564,56.78004
738202.6,240.1025,303.6963,50.20646,56.63299
738213.8,245.0523,302.7483,50.78032,56.55066
738227.3,252.3297,302.2438,51.59917,56.5067
738243.9,258.9367,301.9079,52.31787,56.47737
738261.2,265.5949,301.8727,53.01928,56.47429
738277.4,272.1674,302.6087,53.68999,56.53851
738291.9,278.0246,304.4947,54.27024,56.70205
738311.3,283.1546,305.4843,54.76537,56.7873
738326.8,288.3741,304.7858,55.257,56.72717
738343,292.7072,303.4092,55.65612,56.6081
738358.9,296.897,301.6335,56.03444,56.45338
738375.6,301.1877,299.3275,56.41434,56.25056
738393.3,305.0608,297.2499,56.75087,56.06597
738410.1,309.466,294.3124,57.12645,55.80193
738426.4,314.1184,291.992,57.51499,55.5908
738443,318.6219,290.0922,57.88338,55.41622
738459.6,324.1721,287.8522,58.32723,55.20839
738477.8,329.2487,285.802,58.72368,55.01624
738506.9,335.9572,282.5315,59.23407,54.70587
738515.8,339.1131,280.9232,59.46901,54.55148
738526.7,343.9404,278.7419,59.82217,54.3402
738542.4,348.4522,277.1753,60.14561,54.1871
738559.4,352.727,276.5213,60.4463,54.12285
738575.9,356.9751,276.7585,60.73969,54.14618
738593.4,360.1636,277.4242,60.95644,54.2115
738610.7,362.5956,278.1086,61.11981,54.27844
738627.1,363.9631,278.5189,61.21093,54.31847
738644.4,364.8921,278.311,61.27253,54.2982
738660.4,365.8181,277.246,61.33369,54.19404
738676.9,367.4011,274.7057,61.43771,53.94344
738693.9,369.4883,272.3575,61.5738,53.70908
738711.4,371.8874,269.9911,61.72876,53.47025
738728,373.9674,267.2451,61.86187,53.18967
738742.8,375.6057,264.8473,61.96589,52.94164
738758.7,376.9018,263.2544,62.04769,52.77529
738775.7,378.3597,262.1262,62.13918,52.65668
738793.5,379.6431,261.3958,62.21926,52.57956
738811.2,381.327,260.0656,62.3237,52.43839
738831.6,382.4451,259.4296,62.39264,52.37057
738845.6,383.6064,259.0516,62.46392,52.33017
738860.9,384.9254,258.3899,62.54446,52.25927
738877.6,386.5335,256.6888,62.64207,52.07593
738892.6,388.0922,254.4242,62.73607,51.82951
738911,389.7693,252.396,62.83655,51.60649
738928.3,391.8168,251.0258,62.9583,51.45459
738948,393.8077,250.0513,63.07571,51.34593
738962.1,396.2728,248.5446,63.21979,51.1769
738978.9,399.3564,246.993,63.39803,51.00154
738992.7,402.5901,245.8478,63.58258,50.87125
739012.6,405.6339,245.1966,63.75415,50.79683
739029.2,408.3119,244.4368,63.90339,50.70972
739047.1,410.188,243.416,64.007,50.59216
739062.3,411.9398,241.8721,64.10307,50.41322
739082.9,413.6961,240.0236,64.19872,50.19719
739098.8,415.2937,238.3607,64.28515,50.00118
739113.1,417.2737,235.5137,64.39153,49.66183
739130.9,419.4166,232.8731,64.50572,49.3428
739147.5,421.4951,230.5648,64.61559,49.06048
739167.2,423.5615,228.8137,64.72395,48.84415
739183.9,424.8467,227.6888,64.79091,48.70419
739197.6,425.8419,226.3581,64.84253,48.53761
739214.8,426.5222,225.1189,64.87771,48.38149
739232.9,427.0268,224.8048,64.90374,48.34176
739250.1,427.4191,225.8038,64.92394,48.4679
739263.8,427.6473,226.7207,64.93568,48.58311
739285.2,427.4414,226.2871,64.92509,48.52869
739299.4,427.1339,225.3481,64.90926,48.41043
739313.3,426.805,225.2063,64.8923,48.39253
739330.7,426.5746,226.001,64.88042,48.49271
739348.8,426.4465,226.6662,64.8738,48.57628
739363.7,426.4004,227.188,64.87141,48.64163
739381.5,426.5737,227.6972,64.88036,48.70524
739398.1,426.9004,228.0511,64.89722,48.74936
739412.9,427.3652,228.6265,64.92117,48.82092
739430.1,427.8024,229.2831,64.94365,48.90232
739446.6,428.0786,229.6962,64.95783,48.95341
739463.8,428.2883,229.7636,64.9686,48.96174
739480.7,428.5665,229.7439,64.98285,48.95931
739496.4,428.9253,229.5706,65.00123,48.93789
739513.1,429.3564,229.3159,65.02326,48.90638
739529.9,429.6464,229.2514,65.03806,48.8984
739546.3,429.8074,229.088,65.04628,48.87817
739562.9,429.9385,228.9818,65.05296,48.86501
739582,430.042,228.9304,65.05824,48.85862
739596.8,430.1687,229.1502,65.06469,48.88588
739612.6,430.2526,229.2399,65.06896,48.89698
739629.8,430.2924,229.3696,65.07098,48.91303
739646.8,430.2603,229.501,65.06935,48.92928
739664,430.2755,229.5983,65.07013,48.94132
739679.9,430.3252,229.9092,65.07265,48.97971
739697.7,430.4207,230.5531,65.07751,49.05904
739713.8,430.4905,231.3436,65.08106,49.1561
739729.3,430.5699,232.2214,65.08511,49.26342
739746.3,430.5874,232.8634,65.08599,49.34162
739762.7,430.6102,233.3298,65.08715,49.39828
739779.9,430.8715,233.3624,65.10043,49.40223
739795.9,431.1819,233.3876,65.11618,49.40528
739812.3,431.3789,233.5193,65.12617,49.42126
739829.4,431.3248,233.8462,65.12343,49.46085
739846.8,431.1905,233.5505,65.11662,49.42504
739862.9,431.2276,232.2347,65.1185,49.26504
739881.5,431.4607,230.255,65.13032,49.02234
739898.5,431.9074,229.3008,65.15292,48.90452
739914.1,432.5022,228.642,65.18298,48.82285
739930.1,432.8708,226.8362,65.20157,48.59758
739946.2,432.7823,223.5332,65.19711,48.18031
739965.6,431.8509,220.59,65.15007,47.80268
739980.3,429.4452,220.0351,65.02779,47.73087
739997.4,426.5791,221.198,64.88065,47.88115
740016.6,421.8753,222.7531,64.6356,48.08075
740031.4,417.8655,222.6464,64.42316,48.06711
740051.5,414.3184,220.5139,64.23244,47.79284
740067.2,412.1687,218.3714,64.11557,47.51434
740083.8,411.4182,217.1341,64.07453,47.35215
740101.3,411.7018,218.0387,64.09006,47.47082
740117.3,411.8562,219.3897,64.0985,47.64708
740133.7,412.3705,220.8346,64.12658,47.83428
740149.8,413.1653,222.4153,64.16987,48.03753
740163.3,414.7473,224.6758,64.25565,48.32544
740181.9,415.9912,225.9328,64.32271,48.48414
740198.3,417.1539,225.6749,64.38511,48.45165
740214.3,418.0358,225.1566,64.43224,48.38626
740231.1,418.7039,223.7289,64.46785,48.20522
740248.1,418.3518,221.3993,64.4491,47.90707
740265,417.4047,220.2811,64.39853,47.76272
740280.8,415.5328,220.1987,64.29803,47.75205
740298.2,413.7788,220.2264,64.2032,47.75564
740317,411.6732,219.5689,64.08849,47.67037
740335.5,410.4258,218.3521,64.02008,47.51182
740350.1,409.4022,217.2672,63.9637,47.36964
740367.1,408.4171,217.1022,63.90922,47.34795
740383.1,407.5966,217.2874,63.86368,47.3723
740399.7,406.9285,217.3918,63.82649,47.38601
740415.6,406.4633,216.8555,63.80054,47.31549
740431.8,406.1551,216.2778,63.78332,47.23931
740448.2,406.0203,215.1775,63.77578,47.09361
740464.9,406.2263,213.5616,63.7873,46.87818
740486.1,406.2765,212.7897,63.7901,46.77467
740511.1,405.8799,212.5883,63.76793,46.74759
740521.9,405.6769,212.3924,63.75655,46.72122
740533.8,405.5068,211.6314,63.74702,46.61857
740551.4,405.6949,210.085,63.75757,46.40876
740564.8,406.2245,207.9461,63.7872,46.11589
740581.4,406.9625,205.436,63.82839,45.76817
740599.6,407.2433,203.4409,63.84403,45.48866
740615.8,407.1516,200.3596,63.83892,45.05146
740634.5,406.8437,197.7485,63.82176,44.67568
740653,406.2147,194.6229,63.78665,44.21935
740672.7,405.8182,192.4814,63.76447,43.90254
740682.5,405.5662,189.7408,63.75035,43.49215
740702.4,405.3495,186.9561,63.73821,43.06936
740716.2,404.8873,185.1604,63.71226,42.79358
740733.1,404.2394,184.3514,63.6758,42.66854
740748.9,403.0271,184.0847,63.60734,42.62719
740766,401.5202,183.7358,63.52179,42.57303
740782.6,399.6294,183.3049,63.4137,42.50603
740798.9,397.2587,183.162,63.27702,42.48377
740815.1,393.9216,183.7914,63.0824,42.58167
740835.5,390.8917,186.0435,62.90341,42.92951
740852.4,386.9995,189.1054,62.67023,43.39619
740870.5,383.3225,190.671,62.44652,43.63207
740886.7,379.5246,191.5357,62.21189,43.76156
740902.5,375.5843,192.2921,61.96453,43.87437
740920.9,372.0459,193.5183,61.73895,44.05636
740936.9,368.8342,194.6756,61.53128,44.2271
740953.1,365.5007,195.4247,61.31276,44.33707
740970.4,362.2748,196.1424,61.09836,44.44208
740986.7,359.2331,196.9072,60.89349,44.55354
741002.2,356.5258,198.4018,60.70892,44.77015
741018.1,353.536,200.7601,60.50259,45.10867
741035.4,350.6229,202.4922,60.29898,45.35477
741053.7,348.0193,203.4949,60.11485,45.49626
741068.8,345.1947,204.2961,59.91272,45.60881
741087.1,342.586,205.7325,59.72383,45.80946
741108.6,340.6739,207.2049,59.58401,46.01366
741119.1,338.4401,209.5923,59.41918,46.34157
741134.9,336.2978,211.5478,59.25958,46.60727
741150.8,334.256,213.431,59.10607,46.8607
741168,332.5843,215.1055,58.97934,47.08405
741184,330.9945,216.2555,58.85796,47.23636
741201.6,329.7525,216.4985,58.76254,47.26844
741218.2,328.6435,216.6861,58.67689,47.29318
741234.8,327.82,217.0617,58.61301,47.34263
741251.6,327.3295,217.6176,58.57486,47.41564
741269.1,326.7153,217.6915,58.52696,47.42533
741284.1,325.8901,217.1458,58.4624,47.35368
741301.3,324.9715,216.642,58.39025,47.28735
741320.8,323.8975,216.3684,58.30553,47.25127
741337.4,322.585,216.5784,58.20144,47.27898
741354.1,321.3558,216.9445,58.10339,47.3272
741371,320.2469,217.7211,58.01447,47.42921
741388.1,319.427,218.256,57.94845,47.49926
741403.9,318.9336,218.6542,57.9086,47.55127
741420.9,318.8388,219.0905,57.90093,47.60814
741436.1,318.808,219.6873,57.89844,47.68575
741452.9,318.9407,220.8383,57.90917,47.83475
741470.1,318.8786,222.2134,57.90415,48.01166
741489.4,318.8253,223.6098,57.89984,48.19007
741504.8,318.8474,225.0777,57.90163,48.37629
741520.1,318.9784,226.2238,57.91222,48.52073
741536.9,319.2306,227.1836,57.9326,48.64108
741552.8,319.6859,227.9269,57.96933,48.73388
741571.9,320.1115,228.3912,58.00358,48.79168
741587.2,320.636,228.7014,58.04573,48.83022
741605.3,320.8688,228.8333,58.06439,48.84659
741621.7,320.6522,229.0015,58.04702,48.86744
741637.6,319.4921,228.674,57.9537,48.82682
741654.1,318.2853,228.1913,57.8561,48.7668
741673.2,317.2556,227.4276,57.7724,48.67158
741688.7,316.8437,227.0009,57.73881,48.61822
741706.2,316.7586,226.8909,57.73187,48.60443
741721.4,316.8723,227.1113,57.74114,48.63204
