Time Stamp(ms),Intersection,,Angle,
,x,y,x,y
1157602,315.2828,234.5757,57.61095,49.54898
1157620,314.4675,234.1787,57.54381,49.50106
1157635,313.5218,233.4919,57.46561,49.41794
1157654,312.7911,232.9816,57.40498,49.35599
1157670,312.0619,232.5551,57.34425,49.30409
1157686,311.1497,232.1174,57.268,49.25073
1157702,310.2329,231.7501,57.19106,49.20586
1157720,309.4278,231.3606,57.12322,49.15818
1157737,308.6638,231.2014,57.05861,49.13867
1157753,307.9217,231.1393,56.99564,49.13105
1157770,307.0068,231.0292,56.91772,49.11754
1157789,306.081,231.127,56.83852,49.12954
1157806,305.097,231.4712,56.75398,49.17173
1157822,303.9349,231.8182,56.65366,49.21418
1157842,303.0336,231.624,56.57547,49.19043
1157858,302.2779,231.0554,56.50967,49.12076
1157873,301.4186,230.4609,56.43457,49.0477
1157892,300.7141,229.8671,56.37277,48.97451
1157908,299.9084,229.1803,56.30185,48.8896
1157925,299.2413,228.6512,56.24294,48.82398
1157942,298.5983,228.1127,56.18597,48.75702
1157959,298.071,227.5954,56.13913,48.69253
1157976,297.6058,226.8519,56.09772,48.59956
1157993,297.2223,226.3617,56.06351,48.53806
1158006,296.8332,225.9689,56.02874,48.48867
1158024,296.5518,225.8144,56.00355,48.46923
1158041,296.1895,225.6496,55.97107,48.44846
1158058,295.8604,225.3902,55.94153,48.41575
1158075,295.4257,225.1216,55.90242,48.38184
1158092,294.9542,224.9817,55.85992,48.36414
1158110,294.4948,224.9841,55.81844,48.36445
1158124,293.9114,225.1297,55.76561,48.38285
1158140,293.3224,225.1869,55.71212,48.39008
1158158,292.5215,225.3423,55.63918,48.4097
1158175,291.797,225.4708,55.57294,48.42592
1158192,291.0617,225.5338,55.50551,48.43386
1158207,290.1812,225.5863,55.42443,48.44049
1158224,289.2796,225.6053,55.34108,48.44288
1158241,288.1408,225.6703,55.23529,48.45108
1158257,287.0124,225.7748,55.1299,48.46424
1158273,285.7204,225.9278,55.00856,48.48351
1158291,284.0858,226.2459,54.85397,48.52351
1158307,282.3433,226.5019,54.68786,48.55567
1158324,280.5752,226.6434,54.51792,48.57342
1158341,278.3216,226.8532,54.29923,48.59972
1158360,276.2847,227.0668,54.09956,48.62646
1158375,274.1061,227.3463,53.88385,48.66142
1158391,271.0517,227.567,53.57762,48.68898
1158411,268.9803,227.6839,53.36739,48.70358
1158429,266.7763,227.7268,53.14141,48.70893
1158441,264.5482,227.7507,52.91051,48.71191
1158458,262.2563,227.7442,52.6704,48.7111
1158474,259.9675,227.6496,52.42794,48.6993
1158493,257.8663,227.5161,52.203,48.68264
1158510,255.8087,227.2623,51.98048,48.65092
1158524,253.7302,227.09,51.75345,48.62936
1158541,251.9555,226.8431,51.55777,48.59845
1158558,249.9493,226.4629,51.33452,48.55076
1158574,247.9386,226.1317,51.10858,48.50916
1158595,246.2165,225.7701,50.91328,48.46366
1158612,244.634,225.4301,50.73235,48.42078
1158625,242.9607,225.0392,50.53953,48.37141
1158643,241.3495,224.6719,50.35234,48.32494
1158659,239.6172,224.2897,50.14944,48.27649
1158675,238.0483,223.9271,49.96418,48.23043
1158691,236.4262,223.8001,49.77112,48.21428
1158711,234.9504,223.8061,49.59412,48.21504
1158727,233.5697,223.7413,49.42736,48.2068
1158743,232.1666,223.6598,49.25673,48.19644
1158760,230.9035,223.5968,49.10212,48.18841
1158777,229.7622,223.6709,48.96157,48.19784
1158794,228.7201,223.7233,48.83253,48.20452
1158811,227.8508,223.6657,48.7244,48.19718
1158826,226.932,223.6651,48.60958,48.19711
1158843,226.0772,223.6045,48.5023,48.1894
1158860,225.205,223.479,48.39237,48.1734
1158877,224.4513,223.2883,48.29699,48.14911
1158893,223.6761,223.1902,48.19851,48.13659
1158911,222.9927,223.1701,48.11137,48.13402
1158927,222.371,223.1379,48.03185,48.12991
1158944,221.6732,223.1495,47.94231,48.13139
1158960,220.9328,223.1082,47.84695,48.12613
1158975,220.2299,223.1024,47.75609,48.12539
1158992,219.5721,223.0987,47.67078,48.12491
1159009,219.0763,223.2174,47.6063,48.14006
1159025,218.5699,223.4506,47.54028,48.16979
1159042,218.1695,223.8973,47.48794,48.22665
1159059,217.7421,224.5971,47.43198,48.31546
1159075,217.4337,225.9328,47.39151,48.48414
1159092,217.3519,227.5654,47.38078,48.68878
1159110,217.7882,230.2041,47.43801,49.01608
1159127,218.3262,233.2341,47.50843,49.38666
1159142,219.1382,236.9161,47.61436,49.82958
1159159,220.2467,242.6326,47.75827,50.50153
1159178,221.1556,248.5238,47.87568,51.17456
1159195,222.0062,255.1392,47.98507,51.90761
1159212,222.7504,263.6468,48.08041,52.81638
1159228,223.2624,272.0167,48.1458,53.67485
1159244,223.3763,280.4051,48.16032,54.50149
1159262,223.5765,287.9948,48.18583,55.22168
1159276,223.7896,294.2643,48.21295,55.79758
1159292,224.6028,299.295,48.31618,56.24768
1159310,225.7967,303.7055,48.467,56.63379
1159328,227.5612,306.8092,48.68827,56.90084
1159343,229.1077,308.6385,48.88061,57.05647
1159359,230.6506,309.2937,49.07104,57.11189
1159378,232.3434,308.3779,49.2783,57.03438
1159393,233.9202,308.2603,49.46981,57.0244
1159410,235.5393,308.4686,49.66491,57.04207
1159430,236.9342,308.3713,49.83175,57.03382
1159447,238.0961,308.1565,49.96984,57.01559
1159462,239.1021,307.8998,50.08877,56.99378
1159479,240.075,307.632,50.20323,56.971
1159496,241.0128,307.8094,50.31304,56.98609
1159520,241.8432,308.4261,50.40986,57.03847
1159532,242.458,309.1298,50.48128,57.09805
1159548,243.153,309.6389,50.56177,57.14103
1159565,243.9411,310.0085,50.65271,57.17217
1159582,244.8919,310.1011,50.76194,57.17997
1159596,247.0649,310.1134,51.0097,57.18101
1159621,249.3398,309.6385,51.26627,57.14099
1159634,252.0094,308.6886,51.56374,57.06071
1159645,259.6418,304.9746,52.39323,56.74345
1159665,269.6228,301.4766,53.43283,56.43965
1159681,282.5013,297.9343,54.70298,56.12698
1159697,298.6324,294.2144,56.189,55.79306
1159715,312.4987,291.37,57.38065,55.53381
1159733,323.7244,288.7757,58.29183,55.29434
1159749,333.5671,286.3527,59.05396,55.06804
1159765,340.6196,284.636,59.58002,54.90614
1159780,348.1606,282.8893,60.12489,54.74006
1159798,354.1858,281.5986,60.54765,54.61646
1159814,360.4341,280.3066,60.9747,54.49198
1159830,366.7979,278.6618,61.39816,54.3324
1159847,372.3398,277.093,61.7578,54.17903
1159863,377.9117,274.7639,62.11113,53.94922
1159882,382.058,272.4714,62.36881,53.72052
1159896,386.7673,269.2699,62.65621,53.39691
1159917,390.0561,265.6336,62.85366,53.02329
1159932,393.1743,262.0185,63.03846,52.64533
1159945,396.2303,257.8427,63.21732,52.20045
1159963,398.4803,253.0777,63.34761,51.68171
1159980,400.7583,247.9456,63.47833,51.10936
1159998,402.7306,243.928,63.59055,50.65119
1160013,404.7191,239.8313,63.7028,50.17461
1160030,406.1629,235.6472,63.78375,49.67786
1160047,407.311,231.0052,63.84779,49.11459
1160063,407.7524,226.8213,63.87234,48.59571
1160079,407.3152,222.7624,63.84803,48.08195
1160095,406.4953,218.9936,63.80233,47.59552
1160116,405.8605,216.4111,63.76684,47.25691
1160129,403.6795,213.585,63.64423,46.88132
1160145,400.9732,210.3523,63.4906,46.44514
1160166,398.6067,208.0025,63.3549,46.12365
1160181,396.0373,205.7946,63.20609,45.8181
1160198,393.2857,203.8282,63.04502,45.54314
1160212,389.7526,201.3616,62.83555,45.19437
1160232,386.6078,199.2859,62.64656,44.89753
1160249,383.017,197.5746,62.42778,44.65047
1160262,379.7594,196.0631,62.2265,44.43049
1160279,376.52,194.6421,62.02364,44.22217
1160296,372.8684,193.1241,61.79168,43.99798
1160313,369.3874,191.6523,61.56725,43.77898
1160333,366.0183,190.4114,61.34689,43.59308
1160349,362.458,188.9916,61.11061,43.37897
1160367,359.1188,187.3551,60.88575,43.13029
1160382,355.5419,185.8359,60.6413,42.8976
1160398,352.1533,184.4797,60.40627,42.68839
1160413,348.6967,183.0447,60.16296,42.46548
1160433,345.3808,181.0083,59.92611,42.1464
1160446,341.983,178.1948,59.67987,41.70021
1160464,338.9346,175.215,59.45581,41.22079
1160479,335.8827,173.1798,59.22849,40.88925
1160496,332.7304,171.4421,58.99046,40.60353
1160513,330.0405,170.0936,58.78471,40.3801
1160530,327.2928,168.2731,58.572,40.0761
1160551,324.8423,166.3355,58.38008,39.74954
1160568,322.5801,164.6674,58.20105,39.46588
1160580,320.5475,163.0767,58.03862,39.19323
1160596,318.4373,161.1198,57.86842,38.85487
1160617,316.859,159.3732,57.74006,38.55016
1160635,315.1835,157.5571,57.60279,38.23053
1160649,313.6535,156.0167,57.47653,37.9572
1160664,312.1544,154.3499,57.35196,37.65915
1160680,310.8348,152.8074,57.24161,37.38118
1160699,309.536,151.3516,57.13235,37.11691
1160715,308.4524,149.9467,57.0407,36.86012
1160735,307.4988,148.6868,56.95966,36.62837
1160751,306.6426,147.5259,56.8866,36.41359
1160768,305.814,146.4901,56.81562,36.22092
1160782,305.1628,145.8514,56.75965,36.10167
1160798,304.4947,145.0726,56.70205,35.95574
1160815,303.8727,144.2856,56.64827,35.80774
1160831,303.2857,143.7585,56.59737,35.70829
1160848,302.6818,143.427,56.54487,35.64563
1160865,302.1076,143.0734,56.49481,35.57869
1160884,301.6155,142.8489,56.45181,35.53611
1160899,301.1275,142.5302,56.40907,35.47561
1160916,300.6493,142.3943,56.36708,35.44979
1160933,300.1954,142.3683,56.32715,35.44483
1160951,299.7296,142.3469,56.28609,35.44077
1160965,299.2679,142.3546,56.24529,35.44223
1160982,298.7756,142.3978,56.2017,35.45044
1160999,298.3076,142.4473,56.16017,35.45986
1161015,297.8847,142.5015,56.12256,35.47016
1161034,297.4991,142.5279,56.08821,35.47517
1161050,297.1731,142.5978,56.05911,35.48845
1161066,296.7237,142.6144,56.01894,35.49161
1161083,296.2475,142.6707,55.97628,35.50229
1161099,295.7984,142.7595,55.93595,35.51915
1161115,295.3526,142.9723,55.89584,35.55952
1161133,294.8907,143.1113,55.8542,35.58586
1161150,294.3813,143.2504,55.80817,35.6122
1161166,293.7398,143.4968,55.75005,35.65883
1161183,293.1792,143.6731,55.6991,35.69216
1161200,292.5839,143.9175,55.64487,35.73832
1161216,291.8206,144.2028,55.57511,35.79213
1161234,291.1093,144.4496,55.50988,35.83862
1161253,290.2008,144.7252,55.42624,35.89048
1161270,289.1882,145.0367,55.33261,35.94901
1161287,287.8618,145.184,55.20928,35.97665
1161303,286.3433,145.2282,55.06715,35.98495
1161320,284.1885,144.9705,54.86372,35.93657
1161334,280.4716,144.3854,54.50792,35.82653
1161350,275.7622,144.2885,54.04803,35.80828
1161367,270.1527,144.933,53.48664,35.92953
1161384,262.822,146.2357,52.7299,36.17347
1161400,253.0397,147.826,51.67752,36.46921
1161429,246.2494,148.7029,50.91703,36.63134
1161440,240.9339,149.1777,50.30383,36.71884
1161451,233.7417,150.1214,49.4482,36.89215
1161470,226.0956,150.5565,48.50462,36.9718
1161489,218.3142,150.6702,47.50687,36.99258
1161503,210.455,150.716,46.45911,37.00095
1161518,202.6646,150.9998,45.37914,37.05276
1161534,194.8691,151.0952,44.25554,37.07017
1161551,186.4992,150.9594,42.99941,37.04539
1161568,178.1471,150.5662,41.6926,36.97357
1161584,169.6681,150.2013,40.30929,36.90679
1161602,161.8479,149.7075,38.98116,36.81623
1161619,153.9418,149.2242,37.5858,36.7274
1161636,146.5028,148.3837,36.22329,36.57241
1161652,140.0531,147.2379,35.00222,36.36011
1161668,133.3657,146.3201,33.69648,36.18922
1161684,127.7792,145.6548,32.57435,36.06488
1161702,122.21,145.2706,31.42702,35.99289
1161722,118.0186,145.0263,30.54457,35.94705
1161738,114.1337,144.9738,29.71203,35.93719
1161754,111.6227,144.9368,29.16648,35.93024
1161771,110.488,145.5156,28.91802,36.03881
1161789,109.7492,146.2717,28.75561,36.18019
1161805,110.4758,147.412,28.91533,36.39245
1161821,111.3291,148.505,29.10231,36.59482
1161838,113.1144,149.4823,29.49129,36.77486
1161853,116.6319,150.7171,30.249,37.00114
1161870,120.2704,152.3069,31.02069,37.29052
1161886,124.5624,154.1087,31.91514,37.61582
1161903,129.9925,155.8032,33.02235,37.91916
1161920,135.0695,157.3567,34.03303,38.19508
1161936,141.7005,159.4252,35.31767,38.55925
1161954,147.8611,161.6174,36.47573,38.94122
1161971,153.8439,163.6357,37.56818,39.28928
1161987,161.1715,165.6095,38.86387,39.62637
1162006,168.0948,167.496,40.04618,39.9455
1162022,173.9668,169.432,41.01785,40.26994
1162039,179.625,171.2768,41.9278,40.57622
1162054,185.1575,173.0017,42.79313,40.86008
1162070,191.3498,174.4803,43.73378,41.10149
1162088,197.1084,176.066,44.58281,41.35843
1162103,202.9116,177.5151,45.41403,41.59147
1162121,208.5907,178.6547,46.20447,41.77357
1162138,214.4759,178.8511,47.00029,41.80484
1162156,221.8722,177.6399,47.96788,41.61147
1162172,229.5768,176.3975,48.93866,41.4119
1162189,237.8041,175.1725,49.93521,41.21391
1162206,246.0164,174.5433,50.89048,41.11174
1162222,254.5498,174.2792,51.84325,41.06876
1162241,263.7384,174.3907,52.82597,41.08691
1162257,272.6151,174.8955,53.73492,41.16897
1162272,282.8187,175.1079,54.73331,41.20342
1162289,294.5721,175.1945,55.82542,41.21747
1162305,304.9511,175.3305,56.74142,41.2395
1162322,315.7391,176.3976,57.64843,41.41191
1162338,325.6399,178.1511,58.44278,41.69323
1162354,335.9159,180.1398,59.23098,42.00933
1162372,345.4587,182.4798,59.93172,42.37729
1162389,355.1851,184.2942,60.61671,42.65967
1162406,365.6794,186.0865,61.32455,42.93611
1162426,373.3947,186.9397,61.82533,43.06684
1162442,380.4694,186.9029,62.2706,43.06121
1162455,386.9035,185.5429,62.66444,42.85253
1162472,391.9058,183.0006,62.96356,42.4586
1162489,396.2857,181.0733,63.22055,42.15664
1162505,398.3568,179.7838,63.34049,41.95297
1162522,400.1422,179.4843,63.44309,41.90549
1162539,400.5151,180.0126,63.46443,41.9892
1162556,401.2992,180.4263,63.5092,42.05461
1162573,401.4347,180.4291,63.51691,42.05506
1162590,401.0341,179.5055,63.49407,41.90884
1162607,401.127,178.3729,63.49938,41.72863
1162624,400.9822,177.4731,63.49111,41.58475
1162640,400.5062,176.8545,63.46392,41.48544
1162656,400.2441,176.5903,63.44893,41.44294
1162672,399.8018,176.8356,63.42359,41.48241
1162691,399.1505,177.735,63.38619,41.6267
1162707,398.5381,178.6927,63.35094,41.77962
1162723,398.1923,179.3813,63.331,41.88914
1162740,397.9732,179.9455,63.31835,41.97858
1162756,397.8134,180.4994,63.30912,42.06615
1162774,397.7419,180.9431,63.30499,42.13614
1162791,397.6838,181.3197,63.30162,42.19541
1162808,397.8006,181.6573,63.30838,42.24844
1162826,398.0003,181.9177,63.31991,42.2893
1162843,398.2658,181.6921,63.33524,42.25391
1162858,398.4294,181.5072,63.34468,42.22488
1162874,398.4327,181.4529,63.34487,42.21634
1162890,398.3864,181.575,63.3422,42.23552
1162908,398.1408,181.582,63.32803,42.23662
1162923,397.8502,181.2908,63.31124,42.19086
1162941,397.2143,181.0331,63.27444,42.15031
1162958,396.2972,181.0533,63.22121,42.15349
1162974,394.4991,181.5379,63.11627,42.22969
1162993,392.3962,181.897,62.99257,42.28605
1163011,390.054,181.6399,62.85354,42.24571
1163026,387.016,181.0343,62.67123,42.15049
1163042,384.0168,181.1206,62.48903,42.16409
1163058,380.6388,181.4218,62.2811,42.21146
1163075,377.4157,181.1505,62.08001,42.16879
1163092,375.4731,180.6364,61.9575,42.08778
1163109,374.3516,179.928,61.88632,41.97582
1163125,373.2661,180.107,61.81712,42.00415
1163143,372.0181,180.5391,61.73716,42.07242
1163158,370.5329,181.133,61.64146,42.16603
1163174,368.8011,181.5467,61.52912,42.23108
1163192,367.0427,181.8736,61.41422,42.28238
1163210,365.5695,182.2244,61.3173,42.33733
1163225,364.1726,182.4921,61.22484,42.37922
1163242,362.599,182.7784,61.12004,42.42394
1163259,360.6637,183.1335,60.99018,42.47932
1163278,359.2062,183.4178,60.89167,42.5236
1163293,357.7496,183.7755,60.79261,42.5792
1163312,356.6564,184.0251,60.71787,42.61795
1163327,355.7393,184.22,60.65489,42.64818
1163343,354.7784,184.3211,60.58865,42.66383
1163362,353.9433,184.5869,60.53085,42.70498
1163376,353.0533,185.1406,60.46902,42.79052
1163392,352.0331,185.2647,60.39787,42.80966
1163408,350.8382,184.8568,60.31412,42.74671
1163426,349.1949,183.867,60.19825,42.59341
1163442,347.313,183.1121,60.06453,42.47599
1163459,344.8733,182.5618,59.88956,42.39011
1163476,342.3633,182.3708,59.7076,42.36025
1163492,339.5216,182.2579,59.49919,42.34258
1163509,335.9111,182.2175,59.23062,42.33625
1163526,332.3677,182.0606,58.96286,42.31169
1163542,328.1374,181.7174,58.63766,42.25787
1163559,324.3064,181.5488,58.33784,42.2314
1163575,320.0046,181.8027,57.99498,42.27126
1163592,315.366,182.6677,57.61779,42.40666
1163610,311.1443,183.6058,57.26756,42.55283
1163626,306.4124,184.8407,56.86691,42.74422
1163645,302.4615,185.3676,56.52568,42.82553
1163661,298.9855,185.9868,56.2203,42.9208
1163676,295.4771,187.0553,55.90705,43.0845
1163697,292.4951,188.1981,55.63677,43.25864
1163711,289.536,189.5227,55.36482,43.45925
1163732,286.8724,190.4983,55.11679,43.60614
1163745,284.3959,191.4062,54.88338,43.7422
1163760,282.4229,192.2762,54.69548,43.87201
1163777,280.8222,193.0311,54.54175,43.98418
1163793,279.478,193.6037,54.41174,44.06899
1163810,278.4647,193.8593,54.31319,44.10677
1163828,277.5115,194.1131,54.22005,44.14423
1163844,276.8916,194.396,54.15926,44.18594
1163861,276.2365,194.7219,54.09481,44.23391
1163878,275.6273,194.8509,54.03471,44.25286
1163895,275.2473,194.8746,53.99712,44.25636
1163912,274.9381,194.9039,53.96649,44.26066
1163928,274.8481,194.9567,53.95757,44.26841
1163945,274.7626,195.0674,53.94909,44.28468
1163961,274.7248,195.2215,53.94534,44.30729
1163978,274.6486,195.4538,53.93777,44.34134
1163994,274.5728,195.6532,53.93024,44.37055
1164012,274.7278,195.9421,53.94563,44.41281
1164028,274.8484,196.3017,53.9576,44.46534
1164049,275.0042,196.8153,53.97304,44.54018
1164064,275.1675,197.5189,53.98922,44.64239
1164079,275.2699,197.995,53.99936,44.71136
1164095,275.3873,198.192,54.01097,44.73986
1164112,275.5355,198.1383,54.02563,44.73209
1164130,275.7354,198.2878,54.04539,44.75369
1164145,275.9251,198.6449,54.06411,44.80524
1164163,276.0533,199.0687,54.07675,44.86629
1164182,276.1228,199.4178,54.08361,44.91648
1164196,276.3138,199.8867,54.10242,44.98376
1164213,276.6124,200.4977,54.13181,45.07119
1164231,277.1561,201.6293,54.18522,45.23243
1164247,277.8878,204.0406,54.25687,45.57297
1164263,278.7533,206.6576,54.3413,45.93793
1164282,279.7366,211.0797,54.43682,46.54391
1164298,280.5263,215.8955,54.5132,47.18877
1164313,281.1395,220.7234,54.57231,47.81992
1164329,281.9049,226.2774,54.64586,48.52747
1164346,282.5581,231.3048,54.70841,49.15134
1164363,283.0231,235.4207,54.75283,49.65067
1164379,283.155,239.3397,54.76541,50.11678
1164396,282.7809,242.6636,54.72971,50.50513
1164415,282.1346,244.9067,54.66788,50.76364
1164430,281.5349,246.7056,54.61034,50.96891
1164445,281.1129,247.831,54.56974,51.09642
1164462,281.1335,249.3007,54.57174,51.26188
1164479,281.466,250.716,54.60372,51.4201
1164495,281.8384,252.2595,54.63948,51.59141
1164512,282.1659,252.6575,54.67087,51.63537
1164530,282.4002,252.8095,54.69331,51.65214
1164546,282.9057,252.7833,54.74162,51.64925
1164564,283.4325,253.1308,54.79185,51.68755
1164579,284.0081,253.8928,54.8466,51.77129
1164597,284.4788,254.5862,54.89125,51.84723
1164614,284.7512,255.0887,54.91704,51.9021
1164631,284.8397,255.6347,54.92541,51.96157
1164647,284.9739,256.6122,54.93811,52.06764
1164664,285.1931,257.5891,54.95882,52.17315
1164682,285.3817,258.4413,54.97662,52.26479
1164697,285.562,259.1524,54.99362,52.34095
1164713,285.647,259.9078,55.00164,52.42159
1164733,285.6509,260.567,55.00201,52.49171
1164749,285.6719,261.0647,55.00399,52.54451
1164766,285.6288,261.4957,54.99992,52.59013
1164782,285.5919,261.8053,54.99645,52.62284
1164800,285.4862,261.9433,54.98648,52.63739
1164817,285.2787,262.0174,54.9669,52.64521
1164835,284.9921,262.1791,54.93983,52.66226
1164853,284.595,262.2432,54.90226,52.66902
1164867,284.2664,262.3645,54.87111,52.68179
1164883,283.9034,262.439,54.83665,52.68963
1164901,283.5569,262.5304,54.8037,52.69925
1164916,283.2148,262.6804,54.77111,52.71502
1164933,282.794,262.8803,54.73096,52.73603
1164951,282.4231,262.985,54.6955,52.74702
1164970,282.0734,262.9767,54.66201,52.74615
1164983,281.7201,262.8107,54.62812,52.72872
1165000,281.4144,262.6457,54.59876,52.71137
1165018,281.1215,262.4964,54.57058,52.69567
1165033,280.8559,262.6743,54.54499,52.71438
1165052,280.6011,262.7438,54.52041,52.72169
1165067,280.2924,263.0201,54.4906,52.7507
1165086,280.0122,263.0744,54.4635,52.75641
1165101,279.772,263.3202,54.44025,52.78218
1165119,279.5385,263.5422,54.41761,52.80544
1165134,279.3946,263.8737,54.40364,52.84011
1165151,279.3148,264.1591,54.3959,52.86993
1165168,279.243,264.4686,54.38892,52.90221
1165185,279.2366,264.8117,54.38831,52.93794
1165201,279.2867,265.1899,54.39317,52.97726
1165219,279.2346,265.4593,54.38811,53.00522
1165234,279.2404,265.6707,54.38867,53.02715
