Time Stamp(ms),Intersection,,Angle,
,x,y,x,y
330097.8,323.8146,245.1137,58.29897,50.78734
330113.6,323.724,245.0965,58.2918,50.78538
330132.3,323.6125,245.0117,58.28298,50.77567
330148.2,323.2575,244.5079,58.25484,50.71788
330165.3,323.0215,243.6921,58.23612,50.62401
330182.9,322.8776,243.0985,58.22469,50.55547
330200.2,322.6645,242.5694,58.20775,50.49421
330215.4,322.202,242.0988,58.17094,50.43958
330230.6,321.5172,241.5663,58.11629,50.37762
330246.8,320.6566,241.0663,58.04738,50.31929
330263.8,319.946,240.4692,57.99027,50.24945
330282.2,319.3759,239.6296,57.94432,50.1509
330299.3,318.7925,238.8117,57.89718,50.0545
330314.5,318.0627,238.2673,57.83804,49.99012
330331.5,317.3155,237.9574,57.77728,49.9534
330348.4,316.5588,237.558,57.71554,49.90598
330365.1,315.783,236.8936,57.65202,49.8269
330381.8,315.149,236.2707,57.59995,49.75253
330399.3,314.5592,235.9058,57.55138,49.70885
330414.9,313.8686,235.6611,57.49433,49.67953
330435.1,313.1179,235.2223,57.43212,49.62683
330452.3,312.4086,234.8143,57.37315,49.57774
330467.5,311.8875,234.5462,57.3297,49.54542
330483.3,311.5324,234.103,57.30003,49.49191
330500.3,311.2529,233.4795,57.27665,49.41643
330516.7,311.1337,232.8308,57.26667,49.33766
330530.4,310.9993,232.0662,57.25541,49.24447
330547.6,310.8499,231.1271,57.24288,49.12955
330566.7,310.6465,230.1964,57.22581,49.01513
330582.2,310.3897,229.041,57.20424,48.87234
330598.3,310.1187,228.0245,57.18145,48.74604
330616.5,309.9744,227.0645,57.1693,48.62618
330632.7,309.843,225.9924,57.15823,48.49164
330657,309.6942,225.1501,57.14569,48.38544
330667.9,309.4564,224.5839,57.12563,48.3138
330683.4,309.107,224.1778,57.09612,48.26229
330701.8,308.634,223.9705,57.05609,48.23595
330718.6,308.1751,223.6602,57.01717,48.19649
330733,307.6654,223.1318,56.97384,48.12914
330751.6,307.1477,222.3824,56.92974,48.03331
330767.6,306.5874,221.4545,56.88188,47.91417
330783.7,305.8944,220.4993,56.82252,47.79095
330801.3,304.9612,219.482,56.74229,47.65908
330819.1,304.0597,218.8147,56.66446,47.57221
330833.2,302.9332,218.1777,56.56675,47.48901
330851.3,301.3948,217.744,56.43248,47.43223
330868.8,299.6738,217.0087,56.28115,47.33565
330885.3,297.3625,216.1805,56.07602,47.22646
330902.9,295.0212,215.2963,55.86597,47.10938
330918.6,292.7625,214.5451,55.66116,47.00951
330937.7,289.6138,213.5935,55.37202,46.88246
330958.3,287.4888,212.9215,55.17446,46.79237
330969.4,284.8685,212.2091,54.92814,46.69653
330984.7,282.1623,211.3351,54.67053,46.5785
331001.9,279.6363,210.4258,54.42709,46.45513
331018.3,277.0087,209.3181,54.17076,46.30411
331035.9,274.6242,208.222,53.93535,46.15384
331053.3,272.3804,207.1374,53.71138,46.00434
331070.1,270.218,206.0377,53.49326,45.85191
331087.3,268.2251,204.8177,53.29023,45.68184
331103.5,266.4424,203.6844,53.10696,45.52293
331119.9,264.7939,202.6224,52.93608,45.37318
331135.6,263.2274,201.7056,52.77245,45.24327
331152.6,261.8404,200.8735,52.62654,45.12485
331169.4,260.7037,199.998,52.50623,44.99971
331184.8,259.4694,198.912,52.37483,44.84372
331200.3,258.1931,197.7456,52.23814,44.67525
331219.5,257.1352,196.7338,52.12419,44.52831
331235.9,256.1101,195.8527,52.01322,44.39974
331254.9,255.3017,195.1511,51.92532,44.29696
331268,254.501,194.3542,51.83792,44.17978
331283.9,253.6626,193.5299,51.74602,44.05807
331301.3,252.9731,192.7968,51.67018,43.94941
331320.7,252.2578,192.1294,51.59122,43.85015
331337.8,251.6768,191.6464,51.52689,43.7781
331352.8,250.9991,191.1,51.45162,43.69638
331369.8,250.4223,190.5176,51.38735,43.60904
331386,249.9657,189.9742,51.33636,43.52732
331403.1,249.5723,189.4542,51.29232,43.44891
331419.6,249.1064,188.9952,51.24008,43.37952
331437.3,248.6052,188.7303,51.18373,43.33941
331455.6,248.1653,188.5884,51.13416,43.31789
331470,247.7397,188.3333,51.0861,43.27919
331487.6,247.2078,188.0554,51.02589,43.23695
331503.5,246.7123,187.8547,50.96968,43.20642
331520.2,246.1362,187.8874,50.90413,43.21141
331537,245.6027,187.9173,50.84328,43.21595
331552.8,244.996,188.1456,50.77387,43.25066
331572.7,244.3241,188.1789,50.69676,43.25573
331589.6,243.6509,188.2443,50.61926,43.26567
331603.6,242.943,188.4216,50.53748,43.29259
331621.3,242.1123,188.7733,50.44115,43.34592
331638.3,241.3124,189.2192,50.34801,43.4134
331657.6,240.7422,189.4788,50.28141,43.45261
331671.3,239.9911,189.8897,50.19338,43.51458
331688.1,239.2319,190.2884,50.10408,43.57459
331703.7,238.4643,190.9972,50.01344,43.68098
331722.9,237.9021,191.9115,49.94684,43.81766
331737.8,237.4072,193.2487,49.88806,44.01643
331753.6,237.0923,195.5646,49.85059,44.35758
331770.8,236.7567,198.3819,49.81058,44.76728
331788,236.6705,202.3762,49.8003,45.33834
331803.6,236.6044,206.3735,49.7924,45.89854
331821.7,236.7997,210.5022,49.8157,46.46552
331837.3,237.4508,215.8148,49.89324,47.1781
331853.5,238.3911,221.1863,50.00478,47.87964
331870.8,239.5261,226.589,50.13872,48.5666
331887,241.2329,233.7427,50.33875,49.44833
331914.7,242.9561,239.8398,50.539,50.17561
331926.7,244.2863,243.9295,50.69242,50.65137
331938.6,245.9859,248.1664,50.887,51.13428
331955.2,248.0548,251.3417,51.12169,51.4897
331972.1,250.1827,254.0464,51.36061,51.78813
331988.1,252.7138,256.8451,51.64159,52.09284
332005.9,255.6551,259.257,51.96379,52.35214
332024,258.3894,261.2546,52.25921,52.56461
332040.6,261.1022,262.1831,52.54848,52.66268
332055.8,264.1219,262.6739,52.86605,52.71434
332071.4,267.7066,263.2628,53.23709,52.77617
332089.5,271.3249,263.9652,53.60519,52.84968
332105.3,275.6851,265.3178,54.04041,52.99054
332123.2,279.244,266.9065,54.38903,53.15482
332140.5,282.9512,268.7436,54.74597,53.34324
332155.8,286.4384,270.564,55.07608,53.52832
332170.9,290.7695,272.8091,55.47864,53.75436
332188.3,295.8422,275.7191,55.93988,54.04377
332208.5,300.5972,278.6774,56.3625,54.33392
332224,305.7249,282.4916,56.80798,54.70205
332240.8,310.4782,286.6009,57.21167,55.09133
332255.3,315.0727,291.1948,57.59367,55.51773
332274.3,320.1968,297.4558,58.01045,56.08434
332290.3,325.3593,305.1845,58.42075,56.76152
332314.2,329.6504,312.8282,58.75467,57.40806
332327.1,333.2509,320.2292,59.02999,58.01305
332341.5,337.4587,328.5499,59.34626,58.66964
332357.1,341.6509,336.8071,59.6556,59.29766
332374.2,345.9537,345.6147,59.96727,59.94293
332392,350.1017,352.932,60.26229,60.46058
332410.8,353.9874,358.4711,60.5339,60.84176
332429.8,357.0122,361.3246,60.74224,61.03464
332441.4,359.6752,362.6438,60.92344,61.12303
332460.3,361.6666,363.5497,61.0576,61.18344
332476.6,362.9221,363.7144,61.14161,61.19439
332491.6,363.6479,363.3505,61.18997,61.17017
332511.2,363.8203,363.0552,61.20144,61.15049
332528.1,363.7415,362.8899,61.1962,61.13947
332540.8,363.1211,361.8727,61.15488,61.07142
332560,362.8372,361.0611,61.13594,61.01693
332576.3,362.8877,361.0153,61.13931,61.01385
332591.1,362.5286,360.995,61.11533,61.01248
332609.1,361.9574,361.1057,61.0771,61.01993
332627.2,361.3723,360.9564,61.03785,61.00988
332642.6,360.8118,360.6955,61.00015,60.99232
332659.3,360.3467,360.2166,60.9688,60.96002
332676.1,360.3083,359.8318,60.96622,60.93403
332693.7,360.5482,359.5114,60.98239,60.91235
332710.2,361.3186,359.0632,61.03424,60.88198
332728.6,362.1637,358.3872,61.09092,60.83606
332742.3,363.7119,357.0191,61.19423,60.74271
332759.3,365.4124,355.2426,61.30693,60.62069
332774.4,367.7523,352.9683,61.46069,60.46311
332791.6,371.8911,348.9801,61.729,60.18304
332812.6,377.4083,343.3236,62.07954,59.77745
332826.6,385.6711,335.8995,62.5898,59.22975
332841.5,399.1484,327.4415,63.38607,58.58358
332858.3,412.5023,320.9759,64.13377,58.07298
332875.2,426.1248,315.3777,64.85717,57.61876
332891.7,439.2574,309.8579,65.51956,57.15949
332907.8,450.1653,305.0313,66.04532,56.74833
332925.1,458.2515,301.7001,66.42154,56.45921
332940.3,465.814,298.4859,66.76344,56.176
332958.1,471.5984,295.1624,67.0187,55.8787
332974.3,476.0592,290.0439,67.21195,55.41176
332991.4,481.3203,285.6096,67.43596,54.99812
333008.8,486.5036,281.9425,67.6526,54.64946
333024.3,488.7605,279.3237,67.7457,54.39677
333041.2,489.1009,276.4877,67.75968,54.11954
333059,489.3887,273.3841,67.77148,53.81186
333077.7,488.685,270.9244,67.7426,53.56476
333091.8,486.9439,269.0093,67.67082,53.37035
333109.4,485.6606,266.5097,67.61764,53.11391
333125.7,484.0104,263.3869,67.54889,52.78917
333158.1,480.3676,258.7795,67.39571,52.30104
333172.8,478.5952,256.642,67.32046,52.07087
333187.3,476.8729,254.8687,67.24687,51.8781
333197.3,475.4334,253.0025,67.18503,51.67341
333211.4,473.3099,249.936,67.09322,51.33303
333226.7,471.3787,246.9449,67.0091,50.99608
333242.8,468.9179,243.7317,66.90108,50.62857
333264.9,467.8033,242.4113,66.85183,50.47586
333275.4,465.7457,239.6391,66.7604,50.15202
333294.7,463.7135,236.8873,66.66943,49.82615
333310.2,461.5028,234.4468,66.56969,49.53343
333326.7,459.4055,232.3306,66.47433,49.27674
333344.3,457.4466,230.0463,66.38459,48.99662
333360.5,455.4179,227.1755,66.29098,48.64007
333376.6,453.688,224.32,66.2106,48.28033
333393.7,452.1918,221.9457,66.14066,47.97731
333411.7,451.0149,220.3065,66.08538,47.76601
333426.4,449.9806,218.8488,66.03659,47.57665
333442.9,449.2049,217.5247,65.99989,47.40346
333460.6,448.5007,216.0261,65.96647,47.20604
333477.4,448.0739,214.8777,65.94617,47.05377
333493.1,448.0153,214.107,65.94337,46.95108
333511.9,448.0709,213.5851,65.94603,46.88132
333527.7,448.3855,213.4483,65.96099,46.86301
333544.3,448.6761,213.0943,65.9748,46.81556
333561.3,449.094,212.519,65.99463,46.73826
333577.3,449.665,211.7295,66.02167,46.63183
333593.3,450.1752,210.9716,66.04578,46.52925
333611.1,450.674,210.3447,66.06932,46.44411
333628,451.2746,209.6959,66.0976,46.35572
333644.4,451.8275,209.0588,66.12358,46.26864
333660.8,452.4144,208.3156,66.15109,46.16671
333678.5,452.8301,207.6967,66.17055,46.08153
333693.5,453.2443,207.07,66.1899,45.99501
333711,453.5197,206.3477,66.20275,45.89497
333728.3,453.8112,205.7029,66.21634,45.80534
333746.2,453.8752,204.9582,66.21932,45.70147
333761.8,453.8122,204.4512,66.21639,45.63054
333777.4,453.6613,204.0774,66.20935,45.57814
333793.9,453.2837,203.7245,66.19174,45.52856
333814,452.9963,203.4225,66.17831,45.48607
333829.3,452.6687,203.111,66.16299,45.44217
333846.4,452.3914,202.8807,66.15002,45.40967
333863.2,451.9435,202.7206,66.12902,45.38706
333879.5,451.5023,202.7588,66.10831,45.39245
333898.9,451.0136,202.8221,66.08532,45.40139
333915.4,450.4196,202.8666,66.05733,45.40768
333930.3,449.8482,202.9148,66.03033,45.41449
333947.4,449.1592,202.9166,65.99772,45.41475
333965.3,448.4828,203.034,65.96561,45.43131
333981.1,447.8661,203.0308,65.93627,45.43085
333998.4,447.617,202.9344,65.92441,45.41725
334014.3,447.8199,202.5167,65.93407,45.35823
334032,448.5788,201.9845,65.97018,45.28285
334047.3,450.2534,201.3002,66.04948,45.18563
334065.8,451.6303,200.6402,66.11432,45.09156
334083.2,452.8777,200.102,66.17278,45.0146
334099.5,453.6226,199.7198,66.20755,44.95984
334114.2,453.9695,199.5003,66.22372,44.92833
334133.3,453.8762,199.6149,66.21937,44.94479
334151.8,453.6318,199.8022,66.20798,44.97166
334165.2,453.179,199.993,66.18685,44.99899
334181.8,452.3533,200.3568,66.14823,45.05107
334199.4,451.5676,200.5586,66.11137,45.07991
334214.4,450.4399,200.9793,66.05828,45.13993
334233.1,449.4078,201.3992,66.0095,45.19972
334249.2,448.214,201.6955,65.95284,45.24184
334264.9,447.1521,201.9961,65.90222,45.28449
334282.1,446.0887,202.2968,65.85133,45.3271
334300,445.1797,202.5586,65.80768,45.36416
334317.3,444.4911,202.631,65.77451,45.37439
334334.3,444.0229,202.5389,65.7519,45.36138
334350.4,443.6306,202.1684,65.73293,45.30892
334367.2,443.3221,201.8356,65.71799,45.26172
334383.7,443.1602,201.4408,65.71015,45.20564
334401.8,443.0912,201.1872,65.7068,45.16956
334417.2,443.0828,201.0116,65.7064,45.14454
334432.4,443.2127,200.5646,65.7127,45.08076
334451.1,443.3046,200.1442,65.71715,45.02065
334468.9,443.3828,199.7399,65.72093,44.96273
334484.8,443.4848,199.3109,65.72588,44.90112
334502.7,443.4738,198.9764,65.72534,44.853
334518.7,443.467,198.7504,65.72501,44.82045
334533.7,443.4524,198.3182,65.7243,44.75809
334549.9,443.3647,197.96,65.72005,44.7063
334565.6,443.293,197.5498,65.71658,44.64688
334582.5,443.0333,197.4592,65.70399,44.63373
334600.1,442.7004,197.4683,65.68784,44.63506
334616.2,442.1891,197.5682,65.66299,44.64954
334631.3,441.5058,197.4601,65.6297,44.63387
334649.5,440.8065,197.2821,65.59554,44.60804
334666.5,440.1633,197.2867,65.56405,44.6087
334682.5,439.3127,197.1527,65.52229,44.58923
334700,438.4233,196.9886,65.47847,44.56539
334716.6,437.3779,196.8098,65.42678,44.53937
334733.8,435.9339,196.7156,65.35505,44.52566
334752.2,434.4675,196.654,65.28179,44.51669
334768.5,432.9841,196.4402,65.20728,44.48553
334783.1,431.1204,196.192,65.11306,44.44931
334800.2,429.17,196.0094,65.01373,44.42265
334818,427.0578,195.727,64.90533,44.38135
334834.1,424.816,195.4439,64.78932,44.3399
334851.4,422.1464,195.056,64.64984,44.283
334867.7,419.3787,194.8115,64.50372,44.24707
334886.2,416.7664,194.6687,64.36435,44.22607
334902,413.2228,194.5749,64.173,44.21228
334921.2,410.0795,194.339,64.00103,44.17754
334937.8,407.5132,193.9754,63.85904,44.12392
334951.7,404.0442,193.4755,63.6648,44.05003
334971.1,401.0816,193.0672,63.49679,43.98954
334987.1,397.4735,192.5748,63.28946,43.91643
335006.7,394.335,192.3025,63.10665,43.87593
335019.3,390.77,191.9459,62.89618,43.82279
335033.8,386.2876,191.536,62.62718,43.76161
335050.8,381.6978,191.0657,62.3466,43.69124
335071.3,376.003,190.6206,61.99101,43.6245
335088.8,370.8108,190.3301,61.65941,43.58087
335101,365.884,190.0475,61.33804,43.53835
335120.6,360.6251,189.7381,60.98757,43.49174
335138.7,356.6167,189.3656,60.71515,43.43551
335153.5,351.926,189.0729,60.39038,43.39128
335172.4,348.1239,188.8228,60.12228,43.35341
335190.6,343.4529,188.4826,59.78683,43.30184
335207.4,341.118,188.1624,59.61659,43.25322
335220.3,338.2507,187.7953,59.40514,43.19739
335238.6,335.8036,187.4367,59.22255,43.14273
335252.7,333.3235,187.1812,59.0355,43.10374
335272.2,331.5801,187.0385,58.90277,43.08195
335289.1,329.9011,186.8825,58.77398,43.05809
335304.3,328.3951,186.6234,58.65764,43.01843
335323.9,327.1763,186.3807,58.56292,42.98125
335337.3,326.3014,186.0223,58.49461,42.92625
335355.2,325.5074,185.6968,58.43238,42.87621
335370.6,325.045,185.3146,58.39603,42.81736
335391.8,324.3966,184.8622,58.34495,42.74754
335413.1,324.2528,184.7074,58.3336,42.72361
335422.8,324.0993,184.6217,58.32148,42.71036
335437.8,323.9449,184.5041,58.30928,42.69218
335452.8,323.7428,184.4097,58.29329,42.67756
335470.2,323.5878,184.33,58.28102,42.66521
335491,323.4667,184.2747,58.27143,42.65665
335506.5,323.4105,184.3007,58.26697,42.66068
335520.6,323.3589,184.3751,58.26288,42.6722
335538.2,323.367,184.5302,58.26353,42.69621
335553.8,323.4316,184.6924,58.26865,42.72131
335572.1,323.4392,184.7494,58.26925,42.73011
335587.1,323.4611,184.836,58.27098,42.7435
335603.8,323.4677,184.9431,58.27151,42.76003
335622.9,323.5096,184.95,58.27483,42.7611
335639.6,323.5229,185.0076,58.27589,42.77
335661.1,323.5046,185.0721,58.27443,42.77995
335674.3,323.464,185.0906,58.27122,42.7828
335688.3,323.3773,185.1437,58.26435,42.791
335706,323.3058,185.2649,58.25868,42.80969
335723.1,323.1434,185.3979,58.24579,42.8302
335743.6,323.0221,185.4724,58.23616,42.84166
335759.9,322.9462,185.5107,58.23014,42.84756
335772.9,322.8785,185.407,58.22477,42.83159
335790.8,322.857,185.3976,58.22306,42.83015
335810.8,322.8147,185.4364,58.2197,42.83613
335823.1,322.7373,185.5689,58.21354,42.85653
335837.7,322.7219,185.722,58.21232,42.88009
335857.3,322.7299,185.7232,58.21296,42.88027
335873.7,322.7714,185.8085,58.21625,42.89339
335891.7,322.8775,185.9283,58.22469,42.9118
335908,323.0461,186.0719,58.23807,42.93387
335928.5,323.2506,186.2402,58.2543,42.9597
335941.6,323.5441,186.4247,58.27756,42.98799
335957.8,323.9161,186.665,58.307,43.02481
335973.8,324.4099,187.2242,58.346,43.11032
335991.7,325.0833,187.5492,58.39905,43.15989
336014,325.8063,187.3402,58.45583,43.12802
336027.5,326.395,187.0539,58.50193,43.0843
336041.7,327.0695,186.8202,58.55459,43.04856
336058.2,327.6695,186.7348,58.60131,43.0355
336074.8,328.2316,186.642,58.64497,43.02129
336096.5,328.7521,186.4334,58.6853,42.98933
336112.6,329.2555,186.4128,58.72421,42.98617
336124.3,329.7261,186.2482,58.7605,42.96094
336141.3,330.1053,185.9892,58.7897,42.92117
336158,330.2922,185.4788,58.80407,42.84266
336175.5,330.485,184.9873,58.81888,42.76686
336200.9,330.6229,184.9147,58.82947,42.75565
336214.9,330.6325,184.7201,58.83021,42.72559
336226.8,330.3686,184.4841,58.80994,42.68907
336240.2,329.8349,183.9281,58.76889,42.60289
336262.1,329.4359,183.7442,58.73813,42.57434
336275.3,328.8324,183.634,58.69151,42.55722
336291,327.9984,183.6496,58.62687,42.55964
336307.9,327.2569,183.5467,58.5692,42.54365
336324.3,326.3466,183.302,58.49815,42.50558
336343.4,325.6502,182.9921,58.44358,42.45728
336357.4,324.9655,182.7544,58.38978,42.4202
336376.9,324.3492,182.5668,58.34121,42.39089
336393.1,323.6746,182.5656,58.28789,42.3907
336410.4,323.1896,182.6002,58.24946,42.39611
336427.8,322.7691,182.5617,58.21607,42.39009
336443.3,322.4065,182.4002,58.18723,42.36485
336459,322.1807,182.2637,58.16924,42.3435
336475.9,321.9116,182.1596,58.14779,42.3272
336495,321.6751,182.0104,58.12891,42.30382
336512.4,321.517,181.9891,58.11628,42.30048
336525.6,321.3787,181.9627,58.10522,42.29635
336544.3,321.3053,182.0152,58.09935,42.30457
336561.3,321.2607,182.1129,58.09578,42.31988
336576.5,321.2613,182.2409,58.09583,42.33992
336594.3,321.283,182.3801,58.09756,42.3617
336610.7,321.3173,182.5232,58.10031,42.38408
336627.5,321.4166,182.8085,58.10825,42.42863
336643.2,321.4936,182.9438,58.1144,42.44975
336660.3,321.6025,183.1318,58.12311,42.47906
336675.5,321.6883,183.3938,58.12997,42.51987
336692.1,321.7296,183.7639,58.13326,42.5774
336708.8,321.8005,184.027,58.13892,42.61825
336728.5,321.8474,184.2049,58.14267,42.64583
336742.5,321.8899,184.3124,58.14606,42.66249
336760.5,321.9258,184.3826,58.14893,42.67337
336780.5,321.9474,184.3757,58.15064,42.67229
336794.1,322.0127,184.3977,58.15585,42.6757
336809.5,322.041,184.509,58.15811,42.69292
336827.9,322.0419,184.6155,58.15818,42.70941
336843.4,321.9981,184.8427,58.15469,42.74453
336860.5,321.9211,185.1052,58.14854,42.78506
336878.2,321.878,185.2103,58.14511,42.80128
336893,321.8624,185.393,58.14386,42.82943
336910.4,321.8459,185.4948,58.14254,42.84511
336927.1,321.7979,185.7073,58.13871,42.87782
336943.7,321.777,185.9586,58.13705,42.91647
336960.9,321.7449,186.1035,58.13448,42.93872
336977.3,321.7331,186.167,58.13354,42.94847
336995.1,321.7798,186.2197,58.13727,42.95656
337010.8,321.7971,186.3088,58.13865,42.97023
337027.1,321.7761,186.3893,58.13697,42.98257
337044.4,321.7622,186.4958,58.13586,42.99889
337061.8,321.7921,186.5688,58.13826,43.01009
337078,321.8136,186.6438,58.13997,43.02156
337093.4,321.7701,186.3572,58.13649,42.97765
337111.4,321.7943,186.3816,58.13842,42.98139
337127.6,321.8525,186.4523,58.14307,42.99223
337144.6,321.9103,186.5663,58.14769,43.00969
337163.1,321.9488,186.5511,58.15076,43.00737
337179.6,321.9371,186.4296,58.14982,42.98875
337194.6,321.8698,185.9384,58.14445,42.91336
337211.8,321.8902,185.4663,58.14608,42.84073
337228.9,321.9247,185.2443,58.14884,42.80652
337246.2,321.8934,185.3549,58.14633,42.82357
337263.2,321.7296,185.7836,58.13327,42.88957
337279.8,321.5997,186.1357,58.12289,42.94366
337296.3,321.4655,186.3995,58.11216,42.98414
337314.1,321.4357,186.4012,58.10978,42.98439
337329.9,321.4009,186.2952,58.107,42.96814
337346.7,321.3409,186.2202,58.10219,42.95663
337365.7,321.2076,186.1351,58.09153,42.94357
337382.4,321.0626,186.1131,58.07992,42.94019
337398.1,320.8953,185.9967,58.06652,42.92232
337413.8,320.775,185.6725,58.05687,42.87248
337431.7,320.6902,185.2841,58.05007,42.81265
337448.2,320.5947,184.9545,58.04241,42.7618
337464.6,320.4787,184.8104,58.0331,42.73955
337480.1,320.3511,184.6523,58.02285,42.7151
337499,320.2319,184.3252,58.01327,42.66447
337516.6,320.2,184.0284,58.01071,42.61847
337531.6,320.0872,183.8267,58.00163,42.58716
337547.9,319.9533,183.737,57.99086,42.57322
337567.7,319.8226,183.6865,57.98034,42.56538
337581.8,319.7108,183.6467,57.97133,42.55919
337597.7,319.6306,183.5375,57.96486,42.54221
