Time Stamp(ms),Intersection,,Angle,
,x,y,x,y
614858.6,317.0954,236.0556,57.75934,49.72679
614876.7,317.2737,235.728,57.77388,49.68754
614893.6,317.6522,235.3479,57.80468,49.64192
614908.6,318.0998,234.9527,57.84105,49.5944
614928.5,318.5267,234.7008,57.87567,49.56406
614941.9,318.8747,234.3764,57.90384,49.52494
614959.6,319.0565,234.2394,57.91853,49.50839
614975.6,319.1084,234.2148,57.92272,49.50542
614994.4,319.0773,234.2007,57.92022,49.50372
615010.2,318.9589,234.1472,57.91064,49.49726
615027.4,318.7018,233.9263,57.88984,49.47055
615041.9,318.4969,233.6144,57.87325,49.43278
615058.4,318.2805,233.3347,57.85571,49.39888
615074.3,318.0684,233.0788,57.8385,49.36781
615094.6,317.8277,232.948,57.81895,49.35191
615108.1,317.4949,232.8116,57.79189,49.33532
615124.1,317.1647,232.7417,57.765,49.32682
615141.9,316.9005,232.7845,57.74345,49.33203
615158.1,316.4845,232.8547,57.70947,49.34057
615175.4,316.0105,232.9546,57.67067,49.3527
615194.7,315.4645,233.1158,57.62588,49.3723
615211.3,314.848,233.2889,57.57518,49.39331
615227.6,314.1428,233.4133,57.517,49.4084
615243.1,313.3062,233.7025,57.44775,49.44346
615259.6,312.6071,234.0847,57.38968,49.4897
615275.5,311.8325,234.5862,57.32511,49.55024
615292.7,311.2218,235.0174,57.27404,49.60219
615309.4,310.6181,235.4606,57.22342,49.65546
615325.9,310.0633,235.9759,57.17678,49.71725
615343.1,309.6385,236.3416,57.141,49.76101
615359.4,309.3591,236.7009,57.11742,49.80392
615377.4,309.1402,236.9517,57.09892,49.83383
615394.1,308.8451,237.0661,57.07396,49.84747
615411.8,308.5994,237.2178,57.05315,49.86552
615427.1,308.3924,237.393,57.0356,49.88637
615443.6,308.2205,237.5694,57.02102,49.90734
615461.3,308.0403,237.7119,57.00572,49.92427
615480.8,307.9099,237.8512,56.99463,49.94081
615493.5,307.8115,237.9335,56.98627,49.95057
615510.1,307.6833,237.9642,56.97537,49.95421
615527.3,307.6208,238.0773,56.97004,49.96761
615543.9,307.5719,238.241,56.96589,49.98701
615560.3,307.5816,238.4248,56.96671,50.00877
615578.4,307.5835,238.8276,56.96687,50.05638
615593.9,307.5578,239.7185,56.96468,50.16135
615611.7,307.4235,240.8523,56.95325,50.29428
615628.1,307.1293,242.6251,56.92817,50.50066
615643.6,306.814,244.5782,56.90125,50.72595
615659.6,306.4659,247.1445,56.87148,51.01872
615676.3,306.0002,250.94,56.8316,51.44505
615694.7,305.6328,254.5135,56.80007,51.83928
615710.9,305.1658,259.7926,56.75991,52.40931
615728.1,304.7774,265.0005,56.72645,52.95758
615744,304.3622,270.9127,56.69062,53.56358
615761.1,303.8439,278.7483,56.64578,54.34082
615777.8,303.1549,286.6781,56.58601,55.09858
615796.5,302.3693,295.1487,56.51765,55.87746
615812.3,301.4333,304.4409,56.43586,56.69741
615828.3,300.3008,313.8865,56.33643,57.49581
615843.6,299.0049,323.5007,56.22202,58.27412
615861,297.636,332.4428,56.10041,58.96858
615880.5,296.2723,340.882,55.9785,59.59929
615895.6,295.0337,347.7194,55.8671,60.0935
615911.3,293.7124,355.4969,55.74755,60.63821
615928.6,292.225,364.1998,55.6121,61.22665
615945.1,290.1351,374.2427,55.42019,61.87939
615962.1,287.6589,383.265,55.19035,62.443
615978.6,284.9739,389.3998,54.9381,62.81447
615997,283.0234,392.5782,54.75286,63.00331
616013.4,281.3934,394.6992,54.59674,63.12799
616030.1,280.0456,396.7578,54.46674,63.24797
616047.8,278.7039,399.5713,54.33649,63.41036
616062.9,277.4872,401.1161,54.21767,63.49875
616079.4,276.6048,401.8876,54.13107,63.54269
616096.3,275.946,401.9366,54.06617,63.54548
616113.3,275.2933,403.1761,54.00168,63.61578
616131.5,274.8034,404.5715,53.95314,63.6945
616146.9,274.6149,406.3602,53.93443,63.79478
616163.3,274.4892,407.8581,53.92194,63.87821
616181.9,274.6101,408.8358,53.93395,63.9324
616199.7,274.6929,409.4734,53.94217,63.96763
616216.7,275.0349,409.5376,53.97608,63.97117
616233.4,275.7053,409.0995,54.0424,63.94698
616251.9,276.1762,409.2917,54.08887,63.9576
616267.6,276.6763,409.6046,54.1381,63.97486
616285.8,277.0804,410.0165,54.1778,63.99756
616300.3,277.4266,410.2028,54.21174,64.00782
616316.8,277.6808,410.186,54.23663,64.0069
616333.4,278.0658,410.1361,54.27426,64.00415
616352.7,278.3243,410.1614,54.2995,64.00554
616367.9,278.5285,409.8731,54.31941,63.98967
616382.8,278.7325,409.4828,54.33928,63.96815
616398.4,278.9143,409.04,54.35698,63.94369
616415.8,279.0252,408.7296,54.36776,63.92653
616434.4,279.0869,408.5322,54.37375,63.9156
616450.2,279.0883,408.5107,54.37389,63.91441
616466.4,279.1219,408.2956,54.37716,63.90248
616484.1,279.0801,407.989,54.3731,63.88548
616500.7,279.1125,407.5515,54.37625,63.86117
616519.3,279.109,407.1966,54.37591,63.84143
616533.4,279.1454,406.9222,54.37944,63.82614
616549.6,279.1698,406.6472,54.38181,63.8108
616565.6,279.2389,406.4908,54.38852,63.80207
616582,279.3038,406.2482,54.39483,63.78852
616599.2,279.1779,406.5821,54.3826,63.80717
616615.6,279.2696,406.5264,54.39151,63.80406
616638.4,279.3097,406.5146,54.3954,63.80341
616652.4,279.3678,406.4016,54.40104,63.79709
616668,279.3856,406.1596,54.40277,63.78357
616688.3,279.4761,405.9039,54.41156,63.76926
616700.6,279.5253,405.5651,54.41632,63.75029
616717.4,279.6058,405.2584,54.42413,63.7331
616735.2,279.6131,405.0768,54.42484,63.7229
616750.9,279.6786,404.8363,54.43119,63.70939
616768.7,279.7471,404.5104,54.43783,63.69106
616784.3,279.8255,404.119,54.44543,63.66902
616801,279.8144,403.7137,54.44435,63.64616
616819.8,279.8105,403.2758,54.44398,63.62142
616834.1,279.8037,402.7898,54.44332,63.59391
616850.6,279.8254,402.1929,54.44542,63.56004
616866.6,279.9087,401.4796,54.45349,63.51947
616882.6,279.9583,400.9557,54.45829,63.4896
616899.8,279.8882,400.8445,54.4515,63.48326
616916.6,279.7904,400.9512,54.44203,63.48934
616933.9,279.7209,400.9302,54.4353,63.48814
616950.6,279.6353,400.8697,54.427,63.4847
616967.3,279.578,400.5093,54.42144,63.4641
616983.9,279.5228,400.2536,54.41608,63.44947
617000.6,279.393,400.1052,54.40349,63.44097
617018.4,279.2719,400.0891,54.39174,63.44005
617036.9,279.1393,400.0321,54.37885,63.43679
617054.8,279.0916,399.7114,54.37422,63.4184
617071.3,279.0204,399.4649,54.3673,63.40426
617085,278.9897,399.0805,54.36431,63.38217
617101.1,278.9798,398.7999,54.36335,63.36602
617118.8,278.9266,398.6065,54.35817,63.35489
617135,278.851,398.2757,54.35082,63.33581
617152.4,278.7996,397.9452,54.34581,63.31673
617169.9,278.8089,397.554,54.34671,63.29412
617186.3,278.8433,397.2928,54.35006,63.279
617202.3,278.8171,397.0366,54.34752,63.26414
617220.3,278.8254,396.8073,54.34833,63.25085
617236.1,278.8601,396.4774,54.3517,63.23169
617251.9,278.8611,396.0613,54.3518,63.20749
617269.8,278.8546,395.7483,54.35117,63.18925
617288.4,278.8389,395.441,54.34964,63.17133
617305.7,278.8609,395.0066,54.35178,63.14597
617322.1,278.9103,394.4339,54.35658,63.11245
617336.8,279.1029,393.7451,54.37531,63.07204
617355.5,279.4696,392.6058,54.41092,63.00494
617373.3,280.0026,390.911,54.46258,62.90456
617387.1,281.118,386.6303,54.57024,62.64793
617404.2,282.2049,381.1482,54.67461,62.31264
617420,283.7452,372.9041,54.82161,61.79396
617436.3,286.5603,358.8977,55.08752,60.87074
617454.7,289.0588,347.1791,55.32061,60.05498
617471.6,292.0624,333.854,55.59723,59.07568
617488.8,294.5583,321.3514,55.82417,58.10304
617506.4,296.7218,309.1318,56.01877,57.09821
617522.2,298.9983,294.9848,56.22143,55.86269
617539,300.7871,282.6123,56.37919,54.7136
617555.6,302.4525,269.7472,56.5249,53.44547
617572.7,303.9211,255.9214,56.65246,51.99273
617589.4,305.0512,244.3427,56.75005,50.6989
617605.5,305.4936,233.2741,56.7881,49.39151
617624.2,305.7985,223.2766,56.81429,48.1476
617638.9,305.9132,214.0217,56.82413,46.9397
617655.5,306.2077,205.8549,56.84938,45.82649
617672.6,306.4176,199.1929,56.86736,44.88416
617689.8,306.1988,194.693,56.84862,44.22965
617706.5,305.9525,190.4732,56.82751,43.60237
617723.8,305.5326,187.5792,56.79146,43.16446
617739.8,304.7085,185.4052,56.72051,42.83131
617756.9,304.0093,182.5354,56.6601,42.38598
617773.8,303.2715,179.9603,56.59615,41.98092
617790.2,302.3782,178.0359,56.51842,41.67482
617806.7,301.3315,176.7643,56.42694,41.47094
617824.4,299.7395,175.7777,56.28695,41.31187
617840.3,298.1414,174.4647,56.1454,41.09895
617856.9,296.3522,173.3739,55.98566,40.92102
617873.7,294.7899,172.159,55.8451,40.72171
617891.6,293.2106,171.5824,55.70196,40.6267
617909.5,291.4529,171.5832,55.54142,40.62682
617927,289.6941,171.2068,55.37945,40.56465
617941.6,287.75,170.6625,55.19885,40.47455
617958.2,285.7529,169.9538,55.01162,40.35686
617975.7,283.7772,169.305,54.82465,40.24875
617994.4,282.0663,168.8336,54.66133,40.16999
618008.6,280.1603,168.258,54.47783,40.07356
618027,278.2373,167.8108,54.29101,39.99846
618042.1,276.1865,167.5939,54.08988,39.96198
618057.9,274.345,167.3479,53.90762,39.92055
618075.6,272.3632,167.4451,53.70965,39.93694
618094.1,270.3155,167.9261,53.50315,40.01785
618110.4,268.2502,168.6659,53.2928,40.14193
618125.1,265.6853,170.0966,53.02866,40.3806
618141.1,262.9799,171.5132,52.74649,40.61526
618158.2,259.8998,173.248,52.42073,40.90042
618174.8,256.0469,174.8712,52.00636,41.16502
618192.3,252.1955,176.6369,51.58433,41.45044
618208.6,248.1917,178.7992,51.13713,41.79659
618225.6,242.7603,181.7934,50.51633,42.26979
618249.8,237.8582,183.4715,49.94163,42.53195
618260.6,233.548,184.4908,49.42474,42.69011
618277.3,229.6924,185.0577,48.95294,42.77773
618291.7,225.4008,185.2304,48.41709,42.80437
618308.8,221.5621,185.4145,47.92802,42.83275
618326.8,217.7525,185.2021,47.43333,42.80001
618343.7,214.0587,184.3094,46.94463,42.66203
618357.9,210.1119,183.3159,46.41243,42.50773
618376,206.3476,181.8353,45.89495,42.27638
618392.8,203.4077,180.1808,45.48399,42.01582
618410,200.4946,179.0356,45.07076,41.83421
618426.4,197.8749,178.2592,44.69398,41.71048
618441.4,196.1169,177.9055,44.43835,41.65397
618457.8,194.4059,177.5045,44.18739,41.58978
618474,193.2502,177.6773,44.01666,41.61746
618495.8,192.541,177.748,43.91141,41.62877
618509.6,192.2412,177.5757,43.8668,41.60118
618526.4,191.8592,177.2971,43.80986,41.55651
618543.3,191.7523,177.2158,43.79391,41.54348
618559.8,191.9798,177.2536,43.82785,41.54955
618575.6,191.9444,177.2604,43.82258,41.55064
618593.9,192.1008,177.3079,43.84588,41.55826
618610.6,192.4584,177.4354,43.89912,41.57871
618627.4,192.7106,177.5609,43.93661,41.5988
618643.4,193.0482,177.4072,43.98672,41.57418
618663.5,193.4535,177.2154,44.04676,41.54342
618676.1,193.905,177.0594,44.11351,41.51837
618693.1,194.1619,176.9786,44.15142,41.50538
618712.3,194.1352,176.9984,44.14749,41.50857
618728.6,194.0173,176.9455,44.1301,41.50007
618744.3,194.1835,176.8436,44.15462,41.4837
618760.7,194.5695,176.6922,44.21149,41.45934
618777.5,195.0097,176.2956,44.2762,41.39547
618793.5,195.3223,176.1109,44.32206,41.36568
618811.6,195.7628,175.8862,44.38659,41.3294
618828.7,196.2937,175.5508,44.46416,41.27517
618844.8,196.8415,175.4316,44.54399,41.25587
618860.6,197.2672,175.2731,44.60587,41.23021
618877.2,197.4915,175.3159,44.63842,41.23715
618893.8,197.6849,175.3066,44.66645,41.23564
618911.7,197.7921,175.5045,44.68198,41.26768
618926.2,198.037,175.6711,44.71743,41.29464
618943.1,198.3232,175.8627,44.75881,41.32561
618960.6,198.4545,175.7308,44.77777,41.30428
618978,198.2594,175.843,44.74959,41.32241
618993.4,197.9642,175.9665,44.70691,41.34237
619010,197.7677,176.0647,44.67845,41.35823
619031.8,197.7059,176.209,44.66951,41.38151
619045.7,197.6325,175.9281,44.65886,41.33616
619062.9,197.5549,175.7775,44.64761,41.31183
619079.7,197.5786,175.6513,44.65105,41.29143
619097.9,197.7546,175.5655,44.67656,41.27755
619113.4,198.0378,175.4782,44.71755,41.26342
619126.5,198.4272,175.4623,44.77383,41.26086
619143.3,198.6551,175.4464,44.80671,41.25827
619160.8,198.9959,175.6031,44.85582,41.28364
619178.3,199.3655,175.7666,44.90897,41.31007
619197.1,199.8908,175.7855,44.98436,41.31313
619212,200.3898,175.7747,45.05577,41.31138
619227.5,200.9018,175.8393,45.12889,41.32183
619243.8,201.3664,176.0423,45.19505,41.35461
619260.3,201.8983,176.3886,45.27062,41.41046
619277.4,202.2763,176.4754,45.32421,41.42443
619295,202.4389,176.4426,45.34723,41.41916
619313,202.3946,176.4055,45.34095,41.41318
619329.8,201.9917,176.2971,45.28387,41.3957
619343.3,201.5572,175.9651,45.22218,41.34214
619367.5,200.6845,175.6222,45.09788,41.28672
619382.3,199.8355,175.4095,44.97643,41.2523
619397.1,199.0442,175.2356,44.86276,41.22413
619412.1,198.3535,175.0767,44.76318,41.19837
619428.3,197.9715,175.0487,44.70796,41.19383
619443.8,197.827,175.2908,44.68704,41.23308
619464.1,197.7024,175.3924,44.66899,41.24953
619477.8,197.8991,175.3232,44.69749,41.23833
619494.3,198.1151,175.4168,44.72873,41.25348
619511.2,198.4649,175.4496,44.77926,41.2588
619529.6,198.7957,175.6082,44.82697,41.28446
619545.2,199.1338,175.7163,44.87566,41.30195
619563.8,199.3404,175.8882,44.90536,41.32973
619580.8,199.5735,175.9906,44.93885,41.34626
619598.1,199.7361,175.9473,44.96217,41.33927
619613.8,199.9228,175.97,44.98894,41.34293
619632.3,200.0577,175.988,45.00826,41.34584
619649.4,199.8283,176.0145,44.97539,41.35012
619668.2,199.2484,175.8841,44.89214,41.32905
619683.2,198.6704,175.6257,44.80891,41.28729
619698.8,198.0966,175.3843,44.72605,41.24821
619717.4,197.4563,175.0778,44.63332,41.19855
619732.6,196.7627,174.8773,44.53252,41.16602
619749.9,196.0414,174.6048,44.42732,41.12174
619768.6,195.4623,174.3376,44.34259,41.07827
619783.3,195.185,174.343,44.30193,41.07916
619798.5,195.0892,174.2229,44.28787,41.05959
619815.1,195.1923,174.2513,44.303,41.06421
619831.4,195.2499,174.4475,44.31146,41.09616
619849.6,195.5399,174.6964,44.35396,41.13663
619865,196.0453,174.912,44.42789,41.17165
619883.4,196.6421,175.2693,44.51496,41.2296
619899.6,197.1187,175.6197,44.5843,41.28631
619914.6,197.5176,175.8848,44.64221,41.32917
619932.7,197.884,176.0923,44.6953,41.36268
619949.6,198.191,176.4626,44.73971,41.42238
619965.8,198.3377,176.7893,44.7609,41.47497
619981.9,198.0544,176.9414,44.71996,41.49942
619998.5,197.6407,176.8796,44.66006,41.48948
620016.4,197.1665,176.8036,44.59124,41.47727
620032.5,196.671,176.8539,44.51917,41.48535
620056.6,196.2946,176.9893,44.4643,41.5071
620067,195.8948,177.2266,44.4059,41.5452
620082.6,195.6408,177.2658,44.36874,41.5515
620100.6,195.5874,177.3171,44.36091,41.55973
620117,195.6656,177.3934,44.37237,41.57197
620132.9,195.8599,177.5009,44.4008,41.58921
620149.4,196.1338,177.8049,44.44081,41.63788
620171.6,196.2641,178.0111,44.45984,41.67085
620182.5,196.5475,178.0616,44.50117,41.67892
620201.1,196.9482,178.1971,44.55952,41.70057
620214.9,197.3184,178.2786,44.6133,41.71359
620232.6,197.8136,178.4384,44.6851,41.73908
620250,198.315,178.4482,44.75763,41.74065
620266.6,198.7444,178.6465,44.81959,41.77226
620281.8,199.0216,178.625,44.85952,41.76884
620299.3,199.2144,178.5761,44.88725,41.76105
620315.4,199.4442,178.4861,44.92028,41.74669
620332.5,199.6937,178.5552,44.9561,41.75772
620349.9,199.8896,178.6412,44.98418,41.77142
620365.1,199.9833,178.6991,44.9976,41.78064
620382.4,200.0625,178.6529,45.00896,41.77329
620399.1,200.2178,178.6547,45.03117,41.77357
620416.3,200.565,178.669,45.08082,41.77585
620433.2,200.8573,178.7018,45.12254,41.78108
620449.8,201.0031,178.7833,45.14332,41.79405
620465.1,201.0714,179.0683,45.15306,41.8394
620482.6,201.123,179.3654,45.16041,41.88661
620499.4,201.3534,179.8938,45.19321,41.9704
620517.1,201.7995,180.6128,45.2566,42.08405
620533.1,202.4756,181.4266,45.35241,42.21222
620549.9,203.94,182.7446,45.55884,42.41866
620566.8,205.7688,184.0692,45.81452,42.62479
620583.4,208.9709,185.6091,46.25659,42.86272
620602.1,212.5941,186.9144,46.74836,43.06298
620616.5,216.9357,188.1253,47.32605,43.24759
620633.3,222.7779,189.8595,48.08393,43.51003
620650.2,228.4599,191.6074,48.80022,43.77228
620667.7,234.3263,193.2993,49.51889,44.02393
620684.3,240.9561,194.8909,50.30643,44.25875
620700.7,246.952,196.1207,50.99689,44.43891
620717.9,252.474,196.9036,51.61512,44.55302
620733.5,257.9764,197.4189,52.21484,44.6279
620752.2,262.9538,197.6888,52.74375,44.66703
620769.6,267.3867,197.8033,53.20424,44.68361
620783.8,271.4976,197.7666,53.62261,44.67829
620800.9,275.6396,197.5088,54.03592,44.64093
620817.8,280.3173,197.4386,54.49301,44.63074
620834.9,285.1259,197.6118,54.95247,44.65587
620852.9,290.2368,198.097,55.42957,44.72612
620869.3,294.7184,198.5709,55.83863,44.79456
620884.1,299.3783,198.7199,56.25505,44.81605
620901.1,304.5292,198.657,56.70503,44.80699
620917.3,309.4351,198.7408,57.12383,44.81906
620933.5,314.1992,198.7275,57.52166,44.81715
620951.5,318.2018,198.2732,57.84932,44.75158
620969.9,322.1276,197.6662,58.16502,44.66375
620983.6,326.4456,196.9925,58.50589,44.56595
621001.3,330.6672,196.3184,58.83287,44.46776
621018.2,334.5879,195.574,59.13112,44.35896
621034.2,338.5872,194.8185,59.43009,44.24811
621052.3,341.7682,194.0643,59.66417,44.13704
621072.1,345.0678,193.2702,59.90358,44.01963
621085.1,348.6789,192.7058,60.16169,43.93589
621105.4,351.6493,192.4039,60.37101,43.89102
621118.5,354.452,192.1129,60.56608,43.84769
621134.4,357.4774,191.5579,60.77403,43.76487
621152.2,360.0002,191.0563,60.94541,43.68983
621169,362.8364,190.5431,61.13589,43.61287
621186.7,365.677,189.9872,61.3244,43.52927
621202.3,368.8024,189.4548,61.52921,43.44899
621220.8,371.799,189.1117,61.72308,43.39715
621239.3,374.9513,188.9549,61.92442,43.37342
621259.5,378.2094,188.7507,62.12977,43.34249
621276.4,380.1787,188.6565,62.25256,43.32822
621289.4,382.9235,188.8844,62.42205,43.36275
621304.1,386.0723,189.388,62.61414,43.4389
621326.8,388.5786,189.8587,62.76529,43.50991
621341,390.9199,190.179,62.90509,43.55814
621356.9,392.6943,190.4813,63.01017,43.60359
621371.6,394.6356,190.9559,63.12426,43.6748
621389.3,396.547,191.5591,63.23573,43.76506
621406.9,398.1409,192.0209,63.32803,43.83397
621422.8,399.5724,192.2382,63.41043,43.86635
621441.3,400.8835,192.0213,63.48548,43.83404
621460.6,401.8855,191.9937,63.54257,43.82992
621474.3,402.7095,192.1108,63.58936,43.84738
621489.1,403.7249,192.3336,63.64679,43.88055
621506.5,404.2576,192.3411,63.67683,43.88166
621521.6,404.7303,192.3384,63.70343,43.88126
621537.6,405.2263,192.483,63.73129,43.90278
621555.1,405.5837,192.6586,63.75134,43.92888
621571.2,406.0749,192.8528,63.77884,43.95773
621587.5,406.4828,193.1437,63.80162,44.00088
621604.2,406.6791,193.6237,63.81258,44.07196
621621.4,406.9386,193.981,63.82705,44.12474
621637.8,407.1739,194.345,63.84016,44.17843
621653.9,407.562,194.8393,63.86176,44.25117
621671.4,408.1685,195.3492,63.89544,44.32602
621688.6,408.7014,195.8376,63.92496,44.39753
621704.4,409.2185,196.2584,63.95355,44.45901
621720.6,409.7816,196.6183,63.98463,44.51149
621737.4,410.2419,197.0185,64.00996,44.56973
621753.6,410.674,197.6659,64.03371,44.6637
621771.3,411.0679,198.2926,64.05534,44.75438
621787.6,411.4961,199.0852,64.0788,44.86866
621807.8,411.8124,199.8105,64.0961,44.97285
621822.9,412.1335,200.5608,64.11365,45.08022
621839.4,412.3957,201.1752,64.12795,45.16784
621853.8,412.6382,201.9285,64.14118,45.27491
621873.7,412.8005,202.5807,64.15002,45.36729
621890.7,412.831,203.1447,64.15168,45.44691
621906.6,412.9537,203.575,64.15836,45.50754
621922.9,413.0369,204.0075,64.16289,45.56832
621939.8,413.1359,204.4822,64.16827,45.63488
621956.1,413.161,205.0172,64.16964,45.70972
621972.8,413.1876,205.6132,64.17109,45.79286
621990.1,413.1415,206.1973,64.16858,45.87408
622007.4,413.0688,206.5717,64.16463,45.92603
622024.1,413.0027,206.9531,64.16103,45.97884
622041.1,412.9864,207.214,64.16014,46.01492
622057.3,412.9581,207.5622,64.1586,46.06298
622073.1,412.8849,208.0393,64.15462,46.12871
622091.3,412.769,208.4116,64.14831,46.17989
622106.5,412.6083,208.7484,64.13955,46.22611
622122.6,412.4656,208.9549,64.13177,46.25441
622140.2,412.3643,209.0144,64.12624,46.26256
622156.8,412.2112,209.1319,64.11789,46.27864
622173.2,412.0484,209.3312,64.109,46.3059
622189.9,411.8469,209.5714,64.09798,46.33871
622205.6,411.5883,209.5864,64.08384,46.34077
622223,411.2916,209.7339,64.0676,46.3609
622239.7,410.8553,209.727,64.04367,46.35996
622255.9,410.4272,209.8607,64.02016,46.37819
622273.2,409.9426,209.9483,63.9935,46.39013
622291.6,409.3568,210.2146,63.96119,46.42641
622307.9,408.6563,210.3715,63.92247,46.44775
622323.9,407.5633,210.608,63.86183,46.47989
622341.8,406.3905,210.941,63.79647,46.5251
