Time Stamp(ms),Intersection,,Angle,
,x,y,x,y
1210251,341.3744,251.3912,59.63537,51.4952
1210267,340.7514,251.5241,59.5897,51.50995
1210286,339.8614,251.511,59.52424,51.50849
1210304,338.8762,251.4627,59.45149,51.50314
1210320,337.9337,251.2542,59.38159,51.47998
1210335,336.891,250.9099,59.30392,51.44168
1210353,335.7038,250.4241,59.21507,51.38755
1210368,334.3654,249.8436,59.11433,51.3227
1210385,332.7534,249.0325,58.99221,51.23177
1210402,330.9227,247.859,58.85246,51.09958
1210419,329.1434,246.7656,58.71555,50.97573
1210437,327.314,245.716,58.57365,50.85621
1210454,325.3302,244.3305,58.41846,50.6975
1210471,323.7432,243.0321,58.29332,50.54779
1210485,321.897,241.7731,58.14662,50.4017
1210503,320.0776,241.3466,58.00086,50.35201
1210519,318.2307,240.8277,57.85167,50.29141
1210535,316.385,240.209,57.70133,50.21896
1210553,314.1978,239.5223,57.52155,50.13828
1210580,312.9205,239.4071,57.41573,50.12471
1210596,311.8285,239.5267,57.32477,50.1388
1210607,310.8466,239.5859,57.2426,50.14576
1210630,309.2864,240.0846,57.11128,50.20436
1210643,308.5283,240.1342,57.04713,50.21018
1210653,307.7066,240.4776,56.97735,50.25044
1210667,306.6652,240.967,56.88853,50.30769
1210685,305.6062,241.5565,56.79778,50.37648
1210702,304.5075,242.2284,56.70316,50.45464
1210721,303.2397,242.9573,56.59338,50.53913
1210741,302.0994,243.211,56.4941,50.56848
1210755,301.181,243.4569,56.41375,50.59687
1210770,300.0354,243.6265,56.31305,50.61645
1210788,298.709,243.988,56.1958,50.6581
1210812,297.3675,244.2604,56.07647,50.68945
1210825,296.1706,244.4041,55.96938,50.70595
1210853,294.1448,244.4021,55.78676,50.70573
1210868,293.0743,244.3521,55.68956,50.69999
1210879,292.3196,244.339,55.62075,50.69847
1210890,291.1183,244.3196,55.5107,50.69625
1210905,289.77,244.3365,55.38646,50.6982
1210923,288.5814,244.3023,55.27628,50.69426
1210938,287.1636,244.397,55.14406,50.70514
1210956,285.8491,244.4996,55.02068,50.71692
1210972,284.5103,244.5942,54.89423,50.72779
1210988,282.8863,244.607,54.73977,50.72926
1211008,281.183,244.4619,54.5765,50.7126
1211022,279.2875,244.329,54.39325,50.69733
1211038,277.1476,244.1371,54.18439,50.67526
1211055,274.3117,243.9976,53.9043,50.6592
1211072,270.8506,243.9044,53.5573,50.64848
1211089,267.4615,243.9327,53.21192,50.65173
1211106,263.274,244.0895,52.77734,50.66978
1211123,259.1138,244.0712,52.33682,50.66768
1211140,254.4161,244.1302,51.82862,50.67447
1211158,250.9274,244.1356,51.44363,50.67509
1211173,246.8045,244.262,50.98014,50.68962
1211191,242.6232,244.4584,50.50043,50.7122
1211209,238.9486,244.5688,50.07066,50.72487
1211223,235.3251,244.6486,49.63918,50.73404
1211239,231.6987,244.6405,49.19957,50.73311
1211255,228.675,244.5387,48.82694,50.72141
1211271,225.8609,244.4515,48.47508,50.71141
1211287,223.0302,244.3632,48.11617,50.70126
1211307,220.4064,244.2252,47.77894,50.68539
1211324,217.8347,244.1288,47.4441,50.67431
1211340,215.4396,244.0647,47.12839,50.66692
1211356,213.387,244.02,46.8548,50.66178
1211373,211.0152,243.9621,46.53516,50.65512
1211390,208.8518,243.9869,46.24028,50.65798
1211406,206.8039,244.1297,45.9582,50.6744
1211423,204.9549,244.3581,45.70102,50.70068
1211440,203.1145,244.6686,45.44266,50.73633
1211458,201.487,245.0083,45.2122,50.77527
1211472,199.8983,245.2291,44.98543,50.80056
1211489,198.4864,245.4884,44.78237,50.83021
1211505,197.4334,245.9884,44.62999,50.88729
1211523,196.4793,246.4781,44.49123,50.94305
1211539,195.9035,247.0578,44.40718,51.00889
1211555,195.2733,247.6538,44.31488,51.07639
1211572,194.9246,248.2092,44.26369,51.13911
1211589,194.9046,248.96,44.26077,51.22363
1211607,194.7932,249.8126,44.24438,51.31923
1211625,194.7694,250.5617,44.24089,51.4029
1211640,194.8199,251.0814,44.24831,51.46077
1211656,194.7955,251.5412,44.24473,51.51185
1211671,194.8238,252.1664,44.24889,51.58112
1211689,194.7868,252.9691,44.24345,51.66974
1211707,194.8527,253.888,44.25314,51.77077
1211722,194.8095,255.1793,44.24679,51.91198
1211738,194.7218,256.5028,44.23389,52.0558
1211754,194.6004,258.588,44.21603,52.28053
1211772,194.6209,260.7469,44.21905,52.5108
1211790,194.8063,263.3407,44.24631,52.78433
1211806,195.2939,266.8423,44.31791,53.1482
1211823,195.9458,270.4601,44.41335,53.51779
1211839,196.7556,274.2813,44.53149,53.90127
1211855,198.1037,279.4969,44.72709,54.41358
1211875,198.9851,283.5203,44.85426,54.80021
1211888,199.5735,287.9595,44.93885,55.2184
1211905,199.4791,292.1409,44.92529,55.60442
1211922,199.1893,295.9243,44.88363,55.94727
1211938,198.8446,299.6623,44.83401,56.28014
1211956,199.0234,302.6146,44.85976,56.53902
1211972,200.0088,304.9297,45.00126,56.73957
1211989,201.3422,306.8692,45.19161,56.90597
1212006,202.8957,308.3659,45.41179,57.03336
1212023,204.7666,309.3342,45.67469,57.11532
1212040,206.2403,310.2371,45.88006,57.19141
1212055,207.8842,310.7091,46.10735,57.23107
1212077,209.0548,310.8004,46.26809,57.23872
1212094,210.3461,310.7677,46.4443,57.23598
1212107,211.5398,310.6517,46.60618,57.22625
1212123,212.535,310.8401,46.74041,57.24206
1212139,213.4759,310.9001,46.86671,57.24709
1212156,214.2909,310.8802,46.97563,57.24541
1212174,214.884,311.0354,47.05462,57.25843
1212190,215.2621,311.3969,47.10484,57.2887
1212207,215.6412,311.7058,47.15511,57.31453
1212227,215.884,312.1088,47.18726,57.34816
1212240,216.0104,312.6074,47.20398,57.38969
1212257,216.3047,312.9429,47.24286,57.41759
1212276,216.7836,313.1087,47.30602,57.43135
1212293,217.4047,313.2237,47.38771,57.4409
1212309,218.6696,313.1877,47.55328,57.43791
1212324,220.2403,312.9987,47.75745,57.42223
1212341,222.2906,312.7732,48.02155,57.40348
1212357,225.3313,312.8082,48.40831,57.4064
1212375,228.2145,313.0954,48.76969,57.43025
1212391,231.1098,313.6473,49.12743,57.47602
1212407,234.3517,314.5624,49.52195,57.55164
1212424,237.2194,315.5778,49.86571,57.63519
1212442,239.8835,316.4957,50.18074,57.71038
1212458,243.0972,317.291,50.55532,57.77529
1212478,246.3342,317.8096,50.92668,57.81748
1212491,249.6596,318.0509,51.30211,57.83708
1212508,253.1768,318.165,51.69262,57.84634
1212525,256.3727,318.1773,52.04169,57.84734
1212541,259.7201,317.9412,52.40158,57.82817
1212558,263.1411,317.7181,52.76341,57.81005
1212579,267.0138,317.3048,53.16587,57.77641
1212593,270.4659,316.966,53.51838,57.74879
1212609,274.4809,316.43,53.92112,57.70501
1212630,279.7515,315.5482,54.43826,57.63276
1212645,284.3718,314.8064,54.8811,57.57175
1212662,290.6558,314.0569,55.46817,57.50991
1212676,295.9796,313.6651,55.95223,57.47749
1212692,301.6139,313.3566,56.45167,57.45193
1212708,307.5558,312.8911,56.96452,57.41329
1212726,314.0605,312.1568,57.5102,57.35217
1212743,320.416,311.4949,58.02806,57.29689
1212761,327.4231,310.9915,58.58214,57.25475
1212780,333.2103,310.6402,59.02691,57.22528
1212794,339.4757,310.2943,59.4958,57.19622
1212812,345.4136,310.0373,59.92847,57.17459
1212829,351.2441,309.6963,60.34261,57.14587
1212847,356.4483,309.6141,60.7036,57.13894
1212863,361.5331,309.72,61.04865,57.14787
1212880,365.9123,309.8213,61.33991,57.15641
1212895,369.9982,309.915,61.60686,57.1643
1212913,374.2928,310.0007,61.88258,57.17152
1212929,378.6357,310.1751,62.15644,57.18619
1212948,382.4201,310.3892,62.39111,57.2042
1212963,386.1496,310.4959,62.61883,57.21317
1212979,388.819,310.7611,62.7797,57.23543
1212994,391.6595,310.8257,62.94898,57.24085
1213010,394.2623,311.1891,63.10239,57.2713
1213028,396.849,311.462,63.25327,57.29414
1213044,399.4677,311.7688,63.40442,57.31979
1213065,401.2027,311.9244,63.50369,57.33278
1213079,402.946,311.8723,63.60275,57.32843
1213095,404.6757,311.8584,63.70036,57.32727
1213112,406.454,311.8708,63.80002,57.3283
1213129,408.1217,311.9041,63.89284,57.33108
1213144,409.7413,312.0231,63.9824,57.34102
1213161,411.0273,311.8491,64.05311,57.3265
1213178,412.3281,311.7391,64.12427,57.31731
1213194,413.6251,311.4891,64.19485,57.29641
1213212,414.8366,311.3799,64.26047,57.28728
1213231,416.0457,311.3258,64.32564,57.28275
1213248,417.2843,311.1617,64.39209,57.26902
1213264,418.4509,310.806,64.45438,57.23919
1213281,419.6164,310.629,64.51633,57.22434
1213295,420.6955,310.6264,64.57343,57.22412
1213314,421.9047,310.2957,64.63715,57.19634
1213332,423.0112,309.9012,64.69518,57.16314
1213348,424.2967,309.5425,64.7623,57.1329
1213364,425.5979,309.2696,64.8299,57.10986
1213381,426.9762,308.9575,64.90113,57.08348
1213398,428.3161,308.5507,64.97002,57.04903
1213413,429.6731,308.33,65.03943,57.03032
1213428,430.8025,308.0052,65.09692,57.00274
1213445,431.7249,307.6295,65.14369,56.97079
1213462,432.6368,307.0366,65.18977,56.92026
1213479,433.474,306.6589,65.23193,56.88799
1213494,434.5148,306.337,65.28416,56.86045
1213518,435.1635,306.0276,65.31661,56.83395
1213531,435.7147,305.5056,65.34412,56.78914
1213549,436.1205,304.9999,65.36434,56.74562
1213564,436.4012,304.3486,65.3783,56.68944
1213583,436.6236,303.8705,65.38936,56.64808
1213598,436.8435,303.4924,65.40028,56.61531
1213616,436.9517,303.0442,65.40565,56.5764
1213636,436.8934,302.3473,65.40276,56.51572
1213653,436.895,301.9703,65.40283,56.48282
1213664,436.7705,301.3906,65.39665,56.43211
1213683,436.7114,301.098,65.39372,56.40647
1213699,436.5794,300.8279,65.38716,56.38277
1213714,436.4129,300.3603,65.37888,56.34166
1213731,436.3085,300.1028,65.3737,56.31899
1213747,436.1818,299.8626,65.36739,56.29782
1213764,436.0122,299.7529,65.35895,56.28814
1213780,435.8652,299.5456,65.35162,56.26984
1213797,435.7218,299.5871,65.34447,56.2735
1213814,435.6809,299.637,65.34244,56.27791
1213841,435.6706,299.7316,65.34192,56.28626
1213852,435.629,299.9513,65.33985,56.30564
1213864,435.6267,300.0589,65.33973,56.31512
1213880,435.6913,300.2301,65.34296,56.3302
1213897,435.6984,300.4344,65.34331,56.34818
1213915,435.6861,300.6497,65.3427,56.36712
1213931,435.6994,300.7892,65.34336,56.37937
1213947,435.6464,300.772,65.34071,56.37786
1213968,435.5927,300.7172,65.33804,56.37305
1213981,435.6402,300.5281,65.34041,56.35643
1214001,435.6115,300.394,65.33897,56.34463
1214018,435.6204,300.3513,65.33942,56.34087
1214034,435.5508,300.2973,65.33595,56.33612
1214047,435.532,300.2871,65.33501,56.33523
1214064,435.5044,300.2588,65.33363,56.33273
1214085,435.5876,300.1581,65.33778,56.32386
1214102,435.6521,300.2036,65.341,56.32787
1214117,435.6768,300.1775,65.34223,56.32557
1214135,435.6732,300.1417,65.34205,56.32242
1214149,435.7019,299.9856,65.34348,56.30867
1214165,435.7314,299.9897,65.34496,56.30903
1214181,435.7427,299.9777,65.34552,56.30797
1214199,435.7276,300.0201,65.34476,56.31171
1214219,435.6365,300.0593,65.34023,56.31516
1214238,435.5524,300.037,65.33603,56.31319
1214249,435.578,300.0662,65.3373,56.31577
1214265,435.5593,300.1497,65.33637,56.32312
1214282,435.4622,300.2756,65.33153,56.33421
1214301,435.3228,300.2519,65.32457,56.33212
1214319,435.1107,300.3079,65.31397,56.33706
1214337,434.9579,300.3463,65.30634,56.34043
1214359,434.8629,300.3893,65.30159,56.34422
1214373,434.7713,300.3976,65.297,56.34494
1214388,434.6692,300.4576,65.29189,56.35023
1214404,434.6247,300.4765,65.28967,56.35189
1214420,434.5696,300.5206,65.2869,56.35576
1214436,434.5466,300.6148,65.28576,56.36405
1214453,434.6221,300.6682,65.28954,56.36874
1214472,434.6915,300.7226,65.29301,56.37352
1214486,434.8067,300.6974,65.29877,56.37131
1214504,434.9061,300.6918,65.30374,56.37082
1214521,435.0274,300.7648,65.30981,56.37723
1214537,435.1574,300.7755,65.31631,56.37817
1214551,435.3547,300.7655,65.32616,56.37729
1214570,435.4973,300.7413,65.33327,56.37516
1214587,435.688,300.7386,65.34279,56.37493
1214603,435.8212,300.8337,65.34943,56.38328
1214618,436.0227,300.9257,65.35947,56.39136
1214641,436.1437,300.9014,65.36549,56.38923
1214655,436.2993,300.874,65.37323,56.38681
1214669,436.3906,300.8471,65.37778,56.38445
1214688,436.4496,300.8835,65.38071,56.38765
1214701,436.49,300.9334,65.38272,56.39204
1214719,436.5137,300.9576,65.3839,56.39415
1214737,436.5772,300.8719,65.38705,56.38663
1214752,436.6338,300.8721,65.38986,56.38665
1214770,436.6218,300.8502,65.38927,56.38473
1214785,436.6252,300.8724,65.38943,56.38668
1214802,436.537,300.8329,65.38506,56.38321
1214819,436.4687,300.7316,65.38166,56.37431
1214835,436.4169,300.6868,65.37908,56.37038
1214852,436.4438,300.6302,65.38042,56.36541
1214867,436.5242,300.6382,65.38441,56.3661
1214884,436.6058,300.5998,65.38847,56.36273
1214905,436.6743,300.5798,65.39188,56.36097
1214920,436.7515,300.5828,65.39571,56.36124
1214938,436.8551,300.6232,65.40086,56.36478
1214965,436.8725,300.6806,65.40172,56.36983
1214978,436.9165,300.676,65.4039,56.36943
1214989,436.9111,300.6611,65.40363,56.36812
1215005,436.8951,300.5703,65.40284,56.36014
1215021,436.9118,300.5865,65.40367,56.36156
1215037,436.8946,300.6022,65.40282,56.36294
1215054,436.7954,300.4531,65.3979,56.34983
1215073,436.7108,300.346,65.39369,56.34041
1215089,436.6205,300.1978,65.38921,56.32736
1215104,436.5744,300.2305,65.38691,56.33024
1215121,436.4836,300.326,65.3824,56.33865
1215137,436.2466,300.1835,65.37061,56.3261
1215155,436.08,300.004,65.36232,56.31029
1215172,435.8904,299.881,65.35287,56.29943
1215188,435.7545,299.808,65.34611,56.293
1215206,435.6436,299.8037,65.34058,56.29262
1215221,435.5219,299.7571,65.33451,56.28851
1215239,435.3955,299.7448,65.3282,56.28743
1215256,435.3055,299.6965,65.32371,56.28316
1215272,435.291,299.6455,65.32298,56.27866
1215288,435.3324,299.6021,65.32505,56.27482
1215304,435.375,299.4541,65.32717,56.26175
1215321,435.3737,299.3466,65.32711,56.25225
1215338,435.3725,299.1957,65.32705,56.2389
1215356,435.387,299.1469,65.32777,56.23458
1215372,435.4167,299.1928,65.32926,56.23865
1215389,435.4536,299.0848,65.33109,56.22909
1215405,435.4197,298.9669,65.32941,56.21865
1215422,435.4171,298.8659,65.32928,56.2097
1215440,435.485,298.8347,65.33266,56.20693
1215456,435.481,298.7953,65.33247,56.20344
1215471,435.4705,298.7582,65.33194,56.20016
1215488,435.4477,298.7559,65.3308,56.19995
1215509,435.4819,298.7505,65.33251,56.19947
1215525,435.5206,298.7946,65.33444,56.20338
1215540,435.5335,298.777,65.33508,56.20182
1215559,435.5595,298.7636,65.33639,56.20064
1215574,435.5794,298.7875,65.33738,56.20275
1215592,435.5962,298.8012,65.33821,56.20397
1215608,435.5603,298.6693,65.33642,56.19227
1215624,435.4694,298.5571,65.33189,56.18232
1215644,435.4266,298.4443,65.32975,56.17231
1215659,435.3473,298.3593,65.32579,56.16476
1215674,435.2771,298.2908,65.32229,56.15867
1215691,435.2018,298.3123,65.31853,56.16059
1215708,435.0498,298.2646,65.31093,56.15635
1215725,434.8917,298.2906,65.30302,56.15866
1215741,434.7708,298.3434,65.29698,56.16335
1215758,434.6401,298.3075,65.29044,56.16016
1215776,434.5236,298.2626,65.28461,56.15617
1215792,434.3482,298.251,65.27582,56.15514
1215808,434.1544,298.4012,65.26611,56.16848
1215829,434.0028,298.3315,65.2585,56.16229
1215842,433.8443,298.1414,65.25054,56.1454
1215859,433.6967,298.1145,65.24313,56.14301
1215874,433.5991,298.0848,65.23823,56.14037
1215892,433.5369,298.252,65.23509,56.15522
1215909,433.4677,298.3124,65.23162,56.16059
1215925,433.2834,298.3254,65.22234,56.16175
1215943,433.1945,298.3011,65.21787,56.15959
1215958,433.0115,298.4232,65.20866,56.17043
1215976,432.8134,298.4567,65.19868,56.17341
1215993,432.5846,298.4986,65.18714,56.17713
1216009,432.3505,298.4174,65.17532,56.16991
1216027,432.0814,298.4012,65.16173,56.16848
1216042,431.7159,298.2646,65.14324,56.15635
1216063,431.2895,298.1628,65.12164,56.1473
1216077,430.8183,297.9858,65.09772,56.13156
1216093,430.2048,297.4959,65.06653,56.08792
1216109,429.5661,296.785,65.03397,56.02442
1216126,428.8115,295.8238,64.9954,55.93823
1216143,427.9996,294.6479,64.95378,55.83227
1216161,427.3969,293.7646,64.9228,55.75229
1216177,426.8221,292.7582,64.89318,55.66077
1216195,426.2967,292.0343,64.86606,55.59467
1216211,425.9103,291.3696,64.84608,55.53378
1216227,425.5499,290.9937,64.82741,55.49925
1216244,425.2594,290.5037,64.81235,55.45417
1216261,425.0053,290.0845,64.79916,55.41552
1216276,424.6731,289.5291,64.78188,55.36419
1216292,424.2542,289.0985,64.76009,55.32429
1216310,423.9904,288.9849,64.74634,55.31376
1216326,423.4398,289.0695,64.7176,55.3216
1216343,422.2811,288.9699,64.65691,55.31237
1216363,420.4022,288.308,64.55794,55.25085
1216385,418.4743,287.6803,64.45563,55.19235
1216396,416.7857,287.2879,64.36538,55.15569
1216410,414.6128,286.5961,64.24837,55.09089
1216429,412.4709,285.7855,64.13206,55.01469
1216442,409.681,284.8224,63.97908,54.92378
1216461,406.7206,284.1106,63.8149,54.85632
1216480,403.9351,283.5233,63.65865,54.8005
1216494,400.9246,282.6979,63.48783,54.72178
1216513,397.5454,281.9229,63.29362,54.64759
1216526,393.6526,281.4554,63.0666,54.6027
1216544,390.1219,280.8724,62.85759,54.54658
1216563,385.7914,279.9999,62.5971,54.46231
1216577,381.624,278.7271,62.34204,54.33875
1216592,377.0241,277.4546,62.05539,54.21447
1216610,371.3136,276.0518,61.69184,54.07661
1216630,364.8181,275.0996,61.26764,53.98249
1216650,360.9182,274.5623,61.00732,53.9292
1216660,355.272,273.623,60.62271,53.8357
1216676,349.5048,272.5616,60.22016,53.72956
1216693,344.0156,271.5862,59.82761,53.63153
1216710,337.9585,270.9156,59.38344,53.56387
1216731,332.4036,270.3503,58.9656,53.50668
1216744,327.2643,269.5894,58.56977,53.42943
1216761,322.0236,268.8337,58.15672,53.35244
1216778,316.9729,268.0017,57.74936,53.26735
1216794,312.032,267.2452,57.34176,53.18969
1216812,307.3018,266.4054,56.94287,53.10314
1216829,302.758,265.2981,56.5515,52.98849
1216845,297.7563,264.1684,56.11112,52.8709
1216864,293.9374,263.4573,55.76797,52.79655
1216879,289.5233,262.928,55.36364,52.74104
1216896,286.0492,262.3759,55.03951,52.68299
1216911,282.1566,261.6193,54.66999,52.60319
1216928,278.3164,260.7586,54.29873,52.51205
1216945,274.7419,260.0099,53.94704,52.43246
1216962,271.4352,259.427,53.61632,52.3703
1216978,268.236,258.4811,53.29134,52.26906
1216996,265.1329,257.358,52.97134,52.14823
1217012,261.8703,255.7422,52.62969,51.97326
1217030,258.817,254.3098,52.30506,51.81699
1217046,255.9141,253.0769,51.99194,51.68161
1217061,253.0058,251.6392,51.67379,51.52272
1217077,250.0932,249.889,51.35061,51.32778
1217096,247.3779,247.5087,51.04516,51.05997
1217114,244.9012,244.7346,50.763,50.7439
1217130,242.3797,239.3687,50.4722,50.12019
1217149,240.6331,233.2576,50.26865,49.38952
1217164,239.1123,226.0872,50.08998,48.50356
1217180,238.6205,219.5192,50.03191,47.66391
1217198,238.1101,215.2377,49.9715,47.1016
1217215,237.8213,211.3194,49.93725,46.57637
1217232,237.2269,208.1485,49.8666,46.14374
1217249,236.668,205.5587,49.79999,45.78526
1217264,236.3849,203.2054,49.76618,45.45547
1217280,236.3124,200.6189,49.75751,45.08851
1217298,236.5147,198.217,49.78169,44.74346
1217315,236.9369,196.5678,49.83207,44.50414
1217332,237.0632,195.4293,49.84712,44.33775
1217349,237.06,194.8403,49.84674,44.25131
1217368,237.0386,194.4834,49.84419,44.1988
1217381,237.0579,193.9039,49.84648,44.11335
1217397,237.1754,193.2866,49.86047,44.02206
1217414,237.3397,192.3911,49.88003,43.88911
1217432,237.5519,191.7813,49.90526,43.79824
1217452,237.7281,191.0679,49.92619,43.69157
1217468,237.841,190.0777,49.93959,43.5429
1217480,237.985,188.6931,49.95667,43.33377
1217499,238.0743,187.3042,49.96726,43.12252
1217517,238.1163,186.0505,49.97223,42.93058
1217532,238.0635,184.7493,49.96598,42.7301
1217553,238.0007,183.267,49.95854,42.50012
1217566,237.955,181.8922,49.95312,42.2853
1217581,237.9726,180.5395,49.9552,42.07248
1217599,237.9612,179.4995,49.95385,41.90789
1217616,238.0005,178.4745,49.9585,41.74485
1217633,238.0208,177.2681,49.96091,41.55187
1217650,238.3662,175.7828,50.00183,41.3127
1217664,239.012,174.2375,50.07814,41.06198
1217681,240.0654,173.118,50.20211,40.87914
1217702,241.7699,172.3587,50.40133,40.75455
1217716,243.2362,171.7597,50.57138,40.65593
1217734,244.7973,171.0533,50.75109,40.53927
1217748,246.3071,170.2584,50.9236,40.40748
1217766,247.7634,169.375,51.08878,40.26043
1217787,249.3308,168.6079,51.26525,40.13221
1217806,250.5657,167.9948,51.40334,40.02938
1217817,251.7296,167.48,51.53274,39.9428
1217831,253.1516,166.6698,51.68983,39.80611
1217852,254.443,165.8818,51.83157,39.67262
1217867,255.5088,165.3016,51.94786,39.57401
1217881,256.558,164.5396,52.06177,39.44406
1217898,257.7735,163.7474,52.193,39.30845
