Time Stamp(ms),Intersection,,Angle,
,x,y,x,y
754653.8,321.8906,246.0705,58.14611,50.89664
754669.9,322.3405,245.4901,58.18197,50.8304
754686.6,322.7074,245.0562,58.21117,50.78076
754703.1,323.082,244.8809,58.24092,50.76068
754721,323.5145,244.9305,58.27521,50.76637
754737.7,323.9952,244.7823,58.31326,50.74937
754754.3,324.4336,244.6109,58.34787,50.72971
754775.5,324.7734,244.5911,58.37466,50.72744
754789,325.0656,244.5641,58.39766,50.72433
754804.9,325.2937,244.3954,58.41559,50.70496
754821.9,325.511,244.0994,58.43266,50.67092
754837.9,325.7449,243.8353,58.45102,50.64052
754852.8,325.9286,243.743,58.46542,50.62988
754871.4,325.9206,243.7737,58.46479,50.63342
754887.6,325.5764,243.8887,58.4378,50.64666
754904.8,325.238,243.887,58.41121,50.64647
754920.5,324.9273,243.7612,58.38678,50.63197
754937.4,324.5902,243.5956,58.36022,50.61288
754953.4,324.3906,243.4063,58.34448,50.59103
754971.3,324.2275,243.3754,58.33161,50.58746
754987.3,324.0375,243.4702,58.3166,50.5984
755004.1,323.8268,243.7491,58.29993,50.63058
755019.6,323.5779,244.1529,58.28024,50.67708
755036.8,323.3281,244.598,58.26044,50.72823
755053.3,323.1163,245.0228,58.24364,50.77694
755074.2,322.9731,245.4459,58.23227,50.82536
755092.4,322.7702,246.1045,58.21616,50.90052
755106.2,322.3956,246.8226,58.18636,50.9822
755121.8,321.9438,247.4273,58.15036,51.05075
755140.3,321.4228,247.9037,58.10875,51.10463
755156.3,320.9013,247.9612,58.067,51.11113
755172.1,320.4934,247.9219,58.03428,51.10668
755190.8,320.0406,248.0409,57.99789,51.12012
755206.8,319.6158,248.1612,57.96368,51.13369
755221.4,319.1829,248.0395,57.92874,51.11996
755239.1,318.7653,247.7823,57.89498,51.09091
755254.9,318.4531,247.5826,57.8697,51.06833
755272.6,318.3713,247.4096,57.86308,51.04875
755291.1,318.3179,247.2842,57.85874,51.03455
755305.5,318.2904,247.1992,57.85651,51.02493
755324.9,318.3156,247.1135,57.85855,51.01521
755339.1,318.3067,247.0825,57.85783,51.01169
755356.4,318.3402,247.1765,57.86055,51.02235
755374.1,318.3675,247.3498,57.86276,51.04198
755391.9,318.3601,247.7388,57.86217,51.086
755410.5,318.2867,248.3215,57.85621,51.15178
755424.1,318.1818,248.66,57.8477,51.1899
755443.1,318.0724,249.0524,57.83883,51.23401
755458.8,318.0381,249.4481,57.83604,51.2784
755475.4,318.1095,249.948,57.84184,51.33438
755493.5,318.2835,250.4698,57.85595,51.39265
755507.3,318.6369,250.9882,57.88459,51.4504
755522.8,319.0264,251.3967,57.9161,51.49581
755543.3,319.6413,251.7301,57.96573,51.5328
755556.4,320.3484,252.053,58.02263,51.56857
755575.9,321.248,252.1205,58.09476,51.57604
755593.1,322.0838,252.1766,58.16153,51.58224
755608.6,323.0033,252.341,58.23467,51.60041
755624.1,324.0674,252.5761,58.31895,51.62639
755641.5,325.4918,252.8382,58.43115,51.65531
755663.8,327.0267,253.1732,58.55126,51.69221
755673.7,328.3153,253.492,58.65146,51.72729
755689.7,329.9801,253.8367,58.78006,51.76513
755705.9,331.6082,253.9878,58.90492,51.78171
755723.9,333.1111,254.0853,59.01938,51.79239
755741.9,334.6823,254.1583,59.13824,51.8004
755759.6,336.4503,254.0133,59.27099,51.7845
755775.9,338.2197,253.8998,59.40283,51.77206
755790.3,340.0962,253.8132,59.54154,51.76256
755807.4,341.9258,253.8907,59.67569,51.77107
755823.7,343.7392,254.0625,59.80759,51.78991
755842.1,345.3429,254.1447,59.92339,51.79891
755857.7,347.0773,254.1342,60.04771,51.79776
755873.9,349.4305,254.1775,60.21491,51.8025
755896.4,350.9897,254.2985,60.32476,51.81575
755911.7,352.6071,254.3053,60.43794,51.81649
755926.3,354.2805,254.1677,60.55421,51.80143
755940.9,355.93,253.9939,60.66801,51.78238
755956.9,357.6403,253.789,60.78516,51.7599
755973.1,359.4715,253.7086,60.90965,51.75108
755990.9,361.374,253.5505,61.03796,51.73372
756009,363.0482,253.39,61.15002,51.71606
756024.3,364.8316,253.0534,61.26853,51.67902
756041.3,366.6331,252.822,61.38733,51.65352
756059.4,368.4263,252.603,61.5047,51.62936
756075.1,370.1717,252.499,61.6181,51.61788
756091.8,371.8988,252.3699,61.72949,51.60362
756109.7,373.4729,252.1785,61.83032,51.58245
756123.9,374.9934,252.0636,61.92709,51.56974
756141.2,376.7361,251.8925,62.03726,51.55079
756159.5,378.3199,251.8308,62.13669,51.54396
756176.5,380.0846,251.7316,62.24672,51.53297
756193.6,381.4828,251.7944,62.33332,51.53993
756208.4,383.1095,251.8477,62.43346,51.54583
756225.6,384.7124,251.8999,62.53148,51.55161
756242.9,386.6188,252.0257,62.64723,51.56554
756257.9,388.5892,252.0849,62.76592,51.57209
756274.4,390.6748,252.2459,62.89052,51.5899
756291.2,392.9955,252.5674,63.02792,51.62543
756308.5,395.1023,252.9039,63.15155,51.66255
756325.1,397.1838,253.2828,63.27268,51.70427
756341.8,399.447,253.7187,63.40323,51.75219
756358.3,401.7286,254.2215,63.53365,51.80732
756375.9,404.2891,254.9675,63.6786,51.88888
756396.3,406.5845,255.6805,63.8073,51.96655
756406.1,408.9773,256.475,63.94022,52.05279
756422.6,411.3304,257.2065,64.06973,52.13189
756438.8,413.8524,258.0334,64.20719,52.22097
756455.3,416.5209,258.7852,64.35117,52.30165
756472.8,419.2242,259.6221,64.49551,52.39112
756489.6,421.9769,260.739,64.64094,52.50997
756506.2,424.7689,262.063,64.78687,52.65003
756522.8,427.6229,263.6123,64.93442,52.81277
756539.7,430.4611,265.7238,65.07957,53.03265
756556.1,433.4627,268.2285,65.23136,53.29057
756573.2,436.2214,271.4387,65.36936,53.61666
756590.6,438.7211,274.3267,65.49316,53.90579
756606.9,441.129,277.3308,65.61131,54.20235
756623.1,443.5054,280.0101,65.72688,54.4633
756640,446.1777,283.4471,65.85561,54.79324
756662.2,447.9259,285.7889,65.93913,55.01501
756676.6,450.0232,288.3029,66.0386,55.25038
756692.1,451.948,290.3372,66.12923,55.43883
756710.9,453.7299,292.2386,66.21255,55.61335
756726,455.2413,294.1967,66.2828,55.79145
756741.8,456.8493,296.4286,66.3571,55.99252
756761.1,457.9434,298.09,66.40742,56.14083
756776.6,458.6822,299.5091,66.44127,56.26661
756792.7,459.4211,301.2627,66.47504,56.42091
756809.6,459.5672,303.2545,66.4817,56.59467
756826.8,459.4261,305.0616,66.47527,56.75094
756840.6,459.0918,306.9827,66.46,56.91566
756857.9,458.1197,309.3016,66.4155,57.11256
756877.5,456.6785,312.6455,66.34923,57.39286
756899,455.3646,314.5034,66.28851,57.54677
756913.2,453.5192,316.2564,66.20273,57.69081
756927.1,451.4228,317.3633,66.10457,57.78117
756945.2,448.8188,317.8526,65.98157,57.82098
756961.1,446.281,318.7634,65.86055,57.89483
756979.8,443.0895,319.571,65.70672,57.96006
756995.5,439.63,320.2601,65.53788,58.01554
757023.1,433.5102,320.2627,65.23375,58.01575
757043,428.4994,320.0969,64.97942,58.00241
757058.1,424.3336,319.7001,64.76422,57.97047
757069,420.1823,319.3435,64.5463,57.94171
757078.1,414.3003,318.8928,64.23146,57.90529
757095.4,408.3148,318.4088,63.90355,57.86611
757110.7,401.6625,317.9701,63.52988,57.83052
757126.3,393.9781,317.241,63.08572,57.77121
757144.7,387.7729,316.5077,62.71687,57.71137
757162.8,380.3911,315.8015,62.26575,57.65355
757181.1,372.8733,315.3926,61.79199,57.61998
757199.4,367.589,315.0652,61.45001,57.59306
757212.4,360.454,314.5826,60.97604,57.55331
757228.6,352.7409,314.2473,60.44727,57.52563
757247.8,346.5425,314.2265,60.00948,57.52392
757262.9,339.62,314.1391,59.50645,57.5167
757280.9,330.4477,313.9799,58.81602,57.50354
757304.1,326.0205,313.8091,58.47262,57.48941
757314.8,321.5312,313.696,58.11741,57.48005
757327.6,315.4197,313.5362,57.62221,57.46681
757345.3,309.9665,313.4723,57.16863,57.46152
757364.3,305.1155,313.7514,56.75558,57.48463
757380.6,300.1237,314.1598,56.32084,57.51841
757399.2,296.1001,314.3234,55.96305,57.53192
757414.6,292.0439,314.3875,55.59554,57.53721
757430.9,287.6524,314.3478,55.18974,57.53393
757450.4,284.8609,314.2795,54.92742,57.52829
757462.6,281.9246,314.3578,54.64775,57.53476
757480.1,278.9545,314.4814,54.36088,57.54496
757497.6,276.3295,314.555,54.10398,57.55103
757512.8,273.9278,314.4706,53.8661,57.54407
757532.4,271.2925,314.2091,53.60193,57.52248
757559.4,269.5463,313.865,53.42505,57.49404
757575.1,268.0924,313.5917,53.27665,57.47141
757584.1,267.1142,313.3604,53.17621,57.45224
757596.4,265.9277,312.9645,53.05376,57.41938
757610.8,264.3844,312.3129,52.89343,57.36517
757631.8,262.7799,311.4022,52.72549,57.28914
757651.1,261.1924,310.7468,52.55803,57.23423
757662.1,259.2758,310.3366,52.35415,57.19978
757679.1,257.078,310.175,52.11801,57.18618
757700,255.138,310.0401,51.90747,57.17483
757715.8,253.353,309.7408,51.71201,57.14962
757731.6,251.4109,309.3857,51.49739,57.11967
757748.8,249.5102,309.1141,51.28537,57.09671
757764.3,247.4699,309.0726,51.05558,57.09321
757780.1,245.4613,309.0402,50.82711,57.09047
757798.8,243.8406,309.0237,50.64112,57.08907
757813.9,242.0331,309.0464,50.43194,57.09099
757831.7,240.388,308.9953,50.23994,57.08667
757848.4,238.8721,308.9435,50.06164,57.08229
757863.7,237.5218,308.9222,49.90169,57.08049
757880.8,236.2293,309.0043,49.74759,57.08743
757899,235.1835,309.0742,49.62217,57.09334
757913.8,234.2358,309.1702,49.50795,57.10146
757932.4,233.341,309.1806,49.39964,57.10234
757949.1,232.4515,309.1514,49.29148,57.09987
757965.1,231.644,309.1642,49.19288,57.10095
757979.9,230.7727,309.1085,49.08604,57.09624
757996.9,230.0224,309.0314,48.99368,57.08973
758013.7,229.2692,308.9827,48.9006,57.0856
758029.8,228.5547,308.768,48.81199,57.06744
758046.3,227.8284,308.5205,48.7216,57.04647
758062.6,227.1064,308.274,48.63141,57.02556
758079.8,226.42,308.0228,48.54538,57.00423
758096.2,225.5311,307.9301,48.43353,56.99635
758115.6,224.7079,307.8537,48.32949,56.98986
758132.4,223.8658,307.7642,48.22265,56.98225
758149.3,223.0466,307.5142,48.11826,56.96097
758166.3,222.3434,307.3669,48.02831,56.94843
758181.1,221.5707,307.2346,47.92913,56.93715
758201.7,220.8727,307.2095,47.8392,56.93501
758215.6,220.314,307.0984,47.76699,56.92553
758229.9,219.7008,306.7343,47.68749,56.89444
758248.1,219.2074,306.2446,47.62336,56.85254
758263.8,218.6834,305.8629,47.55508,56.81982
758281,218.3049,305.6498,47.50564,56.80153
758297.2,217.9236,305.3687,47.45576,56.77736
758313.7,217.5816,304.9341,47.41092,56.73996
758330.9,217.241,304.4154,47.36619,56.69521
758347.4,216.8663,303.889,47.31691,56.64969
758363.4,216.3726,303.5588,47.25182,56.62107
758381.9,215.9518,303.329,47.19623,56.60114
758397.9,215.6363,302.948,47.15446,56.56803
758415.5,215.3803,302.3927,47.12053,56.51968
758431.1,215.1174,301.7869,47.08562,56.4668
758449.9,214.7473,301.3174,47.03642,56.4257
758467.2,214.3549,300.8233,46.98416,56.38237
758483.9,214.036,300.2133,46.94161,56.32872
758500.9,213.7012,299.4221,46.89686,56.25892
758520.6,213.3991,298.7046,46.85642,56.1954
758534.8,213.0383,298.0734,46.80804,56.13935
758550.1,212.6057,297.4904,46.74992,56.08743
758565.7,212.0323,296.8336,46.67269,56.02877
758582.2,211.5021,295.981,46.60109,55.95236
758599.6,210.9021,295.0381,46.51982,55.8675
758616,210.3899,294.039,46.45025,55.77717
758634.7,209.9507,293.1184,46.39046,55.69357
758650.6,209.4547,291.7498,46.32277,55.56862
758667.4,208.9928,289.9969,46.25959,55.40742
758684.7,208.6431,287.5168,46.21166,55.17707
758703,208.2966,285.1821,46.16409,54.95778
758717.3,207.9759,283.063,46.11999,54.75664
758733.5,207.5216,280.4415,46.05738,54.50501
758751.8,207.1951,277.6461,46.01231,54.23323
758778.4,207.1671,273.9208,46.00843,53.8654
758792.5,207.1845,271.7884,46.01084,53.65189
758802.5,207.3134,269.8224,46.02864,53.45311
758816.6,207.47,267.6237,46.05027,53.22858
758833.7,207.8333,264.7888,46.10035,52.93555
758853.4,208.41,261.8201,46.17968,52.6244
758868.7,209.0712,259.581,46.27032,52.38674
758883.6,209.8289,257.5579,46.37386,52.16979
758904.2,210.8666,255.2445,46.51501,51.91909
758924.7,211.8333,253.573,46.64584,51.73618
758937.1,212.5911,252.2522,46.74796,51.5906
758953.3,213.7999,250.4873,46.91006,51.39461
758965.6,215.336,248.8595,47.11465,51.21234
758982.9,216.708,247.3285,47.29606,51.03957
758999.6,218.3146,245.4243,47.50692,50.82289
759018.9,219.7909,243.4312,47.6992,50.59391
759032.9,221.3563,241.4085,47.90153,50.35923
759051.9,223.0784,239.4258,48.12232,50.12691
759067.6,224.5933,237.3702,48.31499,49.88366
759085.8,226.0129,235.1451,48.49422,49.61755
759102.1,227.3618,232.5806,48.66336,49.3072
759117.2,228.7617,229.8268,48.8377,48.96954
759133.1,230.3782,226.4247,49.03753,48.54597
759150.8,231.872,223.2783,49.22075,48.14782
759166.6,233.6115,219.526,49.43243,47.66479
759185.4,235.3015,216.2211,49.63635,47.23182
759206.8,237.3804,212.7616,49.88488,46.77088
759219.5,239.2033,210.2999,50.1007,46.43802
759233.5,241.2933,208.1908,50.34579,46.14955
759249.5,243.6605,206.2707,50.62037,45.88428
759269,246.4611,204.5835,50.94112,45.64907
759287.4,249.1948,203.1263,51.24999,45.44433
759302.7,251.677,201.606,51.52691,45.22912
759319.3,254.7006,200.5329,51.85973,45.07623
759336.5,258.091,199.1128,52.22717,44.87263
759352.5,261.2142,197.8895,52.56034,44.69609
759368.9,264.2512,197.0904,52.87954,44.58018
759384.1,267.5773,196.5588,53.22381,44.50282
759401.3,271.3377,196.3762,53.60649,44.47619
759420.1,274.7837,195.91,53.95118,44.40811
759435.8,278.3344,195.319,54.30048,44.32159
759450.9,282.1996,194.6393,54.6741,44.22175
759467.9,285.8799,194.0498,55.02357,44.13489
759484.1,289.7762,193.2971,55.38704,44.02361
759501.1,293.5597,192.3563,55.73369,43.88393
759518.6,297.1094,191.4854,56.05343,43.75404
759533.6,301.0371,190.4876,56.40113,43.60454
759551.1,304.6094,189.7033,56.71195,43.4865
759567.1,308.0466,189.0243,57.00625,43.38392
759583.7,311.2009,188.2003,57.2723,43.25899
759600.3,314.3156,187.3297,57.53128,43.12642
759617.1,317.4792,186.4569,57.79061,42.99293
759634.4,320.2493,185.7732,58.01467,42.88797
759650.9,322.9266,185.2804,58.22858,42.81209
759667.3,325.3439,184.709,58.41954,42.72386
759683.2,327.8264,183.9686,58.61351,42.60919
759702.9,330.4139,182.6491,58.81342,42.40374
759727.5,332.1815,181.6431,58.94867,42.24622
759736.6,333.9637,180.6279,59.08398,42.08643
759754.8,335.7255,179.6748,59.21669,41.93569
759768.4,337.3527,178.5177,59.33836,41.75174
759787.6,338.8073,177.0018,59.44639,41.50912
759807.1,340.2379,175.6745,59.55197,41.29519
759822,341.7327,174.2738,59.66158,41.06789
759837.8,343.1496,172.8602,59.76482,40.83689
759854.4,344.4155,171.4751,59.85652,40.60898
759870.7,345.5263,169.9479,59.93658,40.35587
759886.4,346.853,168.3365,60.03168,40.08672
759915.1,348.1247,166.596,60.12234,39.79362
759928.9,348.8,165.4989,60.17028,39.60757
759938.9,349.4946,164.1633,60.21944,39.37971
759953.4,350.2772,162.681,60.27465,39.12509
759970.1,351.0106,161.4971,60.32623,38.92036
759989.9,351.5863,160.0491,60.3666,38.66839
760007.1,352.1181,158.4935,60.4038,38.39569
760022.7,352.6452,157.0029,60.44059,38.13242
760038.2,353.105,155.6441,60.47262,37.89078
760054.2,353.5084,154.2267,60.50067,37.63703
760072.8,353.8038,152.6999,60.52118,37.36172
760088.1,353.9791,151.2776,60.53333,37.10342
760104.4,354.2197,150.0616,60.55,36.88119
760121.1,354.3515,148.8424,60.55912,36.65707
760136.7,354.2789,147.1401,60.5541,36.34194
760153.1,354.2586,145.683,60.5527,36.07016
760173.2,354.1316,144.782,60.5439,35.90117
760195.8,354.0387,144.0603,60.53746,35.76526
760210.4,353.7589,143.1354,60.51805,35.59043
760223.6,353.4667,142.0222,60.49777,35.37899
760239.5,353.1723,141.2369,60.4773,35.22914
760254.8,352.8626,140.8062,60.45575,35.14673
760270.5,352.4977,140.8297,60.43031,35.15124
760286.7,352.0725,140.593,60.40062,35.10588
760304.4,351.5582,140.4248,60.36463,35.07362
760321,351.027,140.3024,60.32738,35.05013
760338.8,350.4534,140.3434,60.28706,35.05799
760355.4,349.757,140.5166,60.23798,35.09122
760373.6,349.1133,140.4674,60.19247,35.08179
760390.6,348.3693,140.4848,60.13972,35.08513
760414.4,347.5824,140.5789,60.08374,35.10317
760429.9,346.9417,140.7896,60.03802,35.14355
760444,346.3251,140.929,59.9939,35.17025
760458,345.7473,140.7899,59.95245,35.14362
760472.8,344.9717,140.6206,59.89666,35.11117
760491.4,344.3543,140.5391,59.8521,35.09554
760507.1,343.7674,140.6043,59.80964,35.10805
760522.3,343.071,140.8521,59.75911,35.15552
760539.4,342.3652,141.0042,59.70774,35.18465
760556.2,341.6304,141.1122,59.6541,35.20529
760572.4,340.8718,141.1753,59.59854,35.21737
760589.4,340.1065,141.4179,59.5423,35.26372
760606.1,339.386,141.8117,59.48917,35.33887
760622.6,338.3439,142.529,59.41205,35.47538
760640.3,337.3424,143.0875,59.33759,35.58136
760659.7,336.2468,143.6557,59.25576,35.68887
760673.5,334.9261,144.3545,59.1566,35.82071
760689.6,333.4861,144.9904,59.04783,35.94031
760708.1,331.8202,145.7767,58.92112,36.08769
760725.4,330.1736,146.6069,58.79495,36.24269
760739.5,327.7323,147.5305,58.60619,36.41442
760755.3,325.0425,148.4148,58.39584,36.57816
760773.9,322.2667,149.1971,58.1761,36.7224
760790.7,318.5338,150.2511,57.87624,36.91591
760810.4,315.5207,151.1242,57.6305,37.07545
760824.9,312.2671,151.9992,57.36136,37.23468
760840.9,309.241,152.6976,57.10744,37.3613
760858.3,306.4989,153.2316,56.87431,37.45781
760873.2,303.6798,153.6851,56.63157,37.53959
760889.9,301.1003,154.1877,56.40668,37.63002
760907.6,298.5779,154.9887,56.18417,37.77365
760923,296.2297,155.6579,55.97468,37.89325
760940,293.9644,156.2564,55.77041,37.99987
760956.1,291.9041,156.7201,55.58276,38.08226
760970.4,289.6549,157.3821,55.37582,38.19958
760988.4,287.6543,158.1899,55.18992,38.34222
761006.5,285.6507,159.3235,55.00199,38.54144
761024.1,283.6612,160.5277,54.81362,38.75187
761039.8,281.7368,161.6695,54.62973,38.95025
761057.1,279.7519,162.8838,54.4383,39.16002
761075.9,278.1045,163.8221,54.27805,39.32126
761091.1,276.3342,164.8479,54.10443,39.4967
761107.1,274.4052,165.9285,53.91359,39.68054
761123.7,272.3216,166.983,53.70548,39.85902
761138.8,269.9944,167.7793,53.47058,39.99317
761155.1,267.7686,168.4661,53.24345,40.10846
761172.8,265.761,169.019,53.0365,40.20098
761190.1,263.8802,169.5507,52.8408,40.28973
761207.2,262.292,170.0329,52.67415,40.37001
761223.6,260.4742,170.616,52.48185,40.46683
761238.9,258.8854,171.0738,52.31238,40.54266
761254.8,257.1966,171.4852,52.13082,40.61065
761272.8,256.0772,171.8542,52.00965,40.67151
761289.4,254.8932,172.2969,51.88076,40.7444
761306.1,253.9693,172.772,51.77968,40.82242
761322.1,253.3036,173.2148,51.70657,40.89498
761339.2,252.6837,173.5574,51.63826,40.95103
761358.1,252.4716,173.6509,51.61485,40.9663
761372.8,252.497,173.91,51.61766,41.00859
761390,252.7222,174.2468,51.64251,41.06348
761406.3,253.3176,174.7471,51.70811,41.14486
761423.3,253.673,175.2867,51.74717,41.23242
761439.3,254.1723,176.0265,51.80193,41.35205
761457.9,254.6111,176.5799,51.84995,41.44127
761475.2,255.1347,177.1929,51.90711,41.5398
761492.2,255.8496,177.7641,51.98494,41.63136
761509.7,256.3974,178.2936,52.04437,41.71598
761525.3,256.9234,178.8314,52.10131,41.80171
761541.4,257.3965,179.4395,52.15239,41.89837
761559.9,257.7672,179.896,52.19233,41.97075
761575.6,258.0563,180.4644,52.22343,42.06064
761591.8,258.3631,180.9439,52.25639,42.13626
761608.3,258.5761,181.5119,52.27924,42.22561
761625.5,258.7398,181.9929,52.29679,42.30109
761642.1,258.8493,182.3959,52.30852,42.36418
761657.2,258.902,182.8318,52.31416,42.43227
761675.6,258.9246,183.272,52.31658,42.50089
761692.8,258.9655,183.6242,52.32096,42.55569
761707.6,258.9128,184.0573,52.31532,42.62294
761724.4,258.864,184.3749,52.31009,42.67217
761740.3,258.7467,184.8839,52.29753,42.7509
761760.1,258.6214,185.4185,52.2841,42.83337
761777.1,258.522,185.8115,52.27345,42.89386
761792.3,258.405,186.3262,52.26089,42.97289
761808.1,258.3106,186.7599,52.25076,43.03934
761823.3,258.1302,187.1536,52.23137,43.09953
761841.3,257.9533,187.5575,52.21236,43.16115
761858,257.8019,187.8475,52.19607,43.20533
761874.1,257.6467,188.204,52.17935,43.25954
761891.5,257.5691,188.5485,52.17099,43.31184
761911.8,257.4945,188.7979,52.16295,43.34964
761926.5,257.4476,189.1028,52.15789,43.3958
761943.1,257.3662,189.3964,52.14912,43.44017
761957.4,257.4087,189.7388,52.1537,43.49184
761974.1,257.5634,190.2277,52.17038,43.56546
761993.5,257.6809,190.9245,52.18304,43.67009
762009.6,257.9109,192.2307,52.20779,43.86524
762025.1,258.2208,193.7129,52.24111,44.08513
762043.8,259.2754,195.6138,52.3541,44.36478
762058.6,260.6898,197.1536,52.50474,44.58937
762074.1,264.5471,199.5758,52.91039,44.93917
762091.9,269.1002,202.3692,53.37962,45.33736
762108.8,275.4815,206.2472,54.02029,45.88102
762126.2,280.8218,209.2764,54.54171,46.29841
