Time Stamp(ms),Intersection,,Angle,
,x,y,x,y
1724633,317.7815,250.6162,57.81519,51.40898
1724669,317.3782,251.2902,57.78239,51.48398
1724702,316.9445,252.0571,57.74704,51.56902
1724729,316.2642,252.5198,57.69145,51.62018
1724762,315.5636,252.8528,57.63402,51.65692
1724794,315.0552,253.2099,57.59224,51.69625
1724828,314.5887,253.5812,57.55381,51.73708
1724859,314.0753,253.9998,57.51143,51.78303
1724892,313.6657,254.4331,57.47754,51.83048
1724926,313.4063,254.9722,57.45604,51.88939
1724957,313.1588,255.4946,57.43552,51.94633
1724995,312.6496,256.3373,57.39321,52.03786
1725021,311.889,257.1485,57.32982,52.12563
1725054,311.0359,257.9792,57.25847,52.21514
1725076,310.2106,258.6452,57.18919,52.28666
1725093,308.958,259.6342,57.08352,52.39242
1725112,307.2373,260.8257,56.93737,52.51916
1725133,305.4487,262.0216,56.78424,52.64566
1725152,302.8095,262.9706,56.55599,52.74551
1725173,299.6504,264.0135,56.27909,52.85472
1725192,295.9369,265.1839,55.9484,52.97663
1725210,292.6904,266.1344,55.65458,53.07514
1725228,288.7415,267.3347,55.29116,53.19889
1725249,285.3821,268.4816,54.97667,53.31647
1725272,280.0573,269.9985,54.46786,53.471
1725304,274.6804,271.2691,53.94093,53.59957
1725337,269.8166,272.5284,53.45252,53.72622
1725372,265.1903,273.8994,52.9773,53.86327
1725405,261.3846,274.5781,52.57837,53.93077
1725437,258.1558,275.6781,52.23413,54.03972
1725470,255.4813,276.5709,51.94488,54.12773
1725506,253.069,277.6322,51.68074,54.23187
1725539,251.4858,279.1381,51.5057,54.37873
1725568,248.9164,281.5189,51.21872,54.6088
1725600,245.7003,282.9281,50.85441,54.74376
1725630,242.3337,284.9727,50.46686,54.93799
1725668,238.845,286.744,50.05843,55.10476
1725699,236.1246,287.6411,49.73505,55.18869
1725731,233.6255,288.1002,49.43413,55.23151
1725766,231.5184,288.3784,49.1775,55.25741
1725796,229.6193,288.9972,48.94391,55.3149
1725827,228.4569,289.476,48.79985,55.35927
1725866,227.8593,289.7988,48.72546,55.38913
1725895,227.4486,291.0391,48.6742,55.50343
1725927,226.7954,291.9536,48.59248,55.58728
1725959,226.5404,293.1693,48.5605,55.69821
1725992,226.503,294.4012,48.5558,55.80996
1726024,226.6534,295.1072,48.57467,55.87373
1726055,226.9642,295.8831,48.61362,55.94357
1726087,226.8488,297.0352,48.59917,56.04679
1726119,227.325,297.9545,48.65875,56.12878
1726151,228.6043,298.0583,48.81816,56.13801
1726185,229.7572,297.982,48.96095,56.13122
1726217,230.2773,297.5351,49.02509,56.09142
1726249,231.0204,296.3232,49.11646,55.98306
1726281,231.0569,295.2813,49.12093,55.88942
1726314,230.9248,295.2999,49.10472,55.8911
1726346,230.9464,296.2633,49.10737,55.9777
1726378,230.5422,297.0475,49.0577,56.0479
1726411,230.3419,296.9808,49.03305,56.04193
1726445,230.2885,296.246,49.02648,55.97614
1726478,230.3091,296.2543,49.02901,55.97688
1726508,230.2789,296.1239,49.02529,55.96518
1726540,230.7507,295.6908,49.08334,55.92628
1726576,231.3448,295.2773,49.15624,55.88906
1726609,232.6084,295.3659,49.31059,55.89705
1726638,233.8257,294.8703,49.45837,55.85236
1726672,235.1069,294.2325,49.61295,55.79469
1726702,237.1049,293.7489,49.85209,55.75087
1726736,238.5535,291.7789,50.02399,55.57129
1726768,239.4222,290.8154,50.12649,55.48286
1726800,240.8139,290.7777,50.2898,55.47939
1726833,242.1009,290.4332,50.43983,55.44767
1726865,242.4741,290.7046,50.48316,55.47266
1726898,242.4419,290.7977,50.47942,55.48123
1726935,242.3781,290.4985,50.47201,55.45369
1726964,242.2233,290.6375,50.45405,55.46649
1726999,242.0851,290.8383,50.43799,55.48497
1727030,242.2623,290.8847,50.45858,55.48923
1727066,242.2658,291.1994,50.45898,55.51815
1727095,243.0505,290.8801,50.54992,55.48881
1727126,244.111,290.7615,50.67226,55.4779
1727158,245.3248,290.6565,50.8115,55.46824
1727195,246.4673,291.5433,50.94183,55.54971
1727229,247.614,292.3029,51.07188,55.61922
1727258,248.3685,292.9247,51.15707,55.67594
1727294,249.317,293.325,51.26371,55.71237
1727323,250.3018,293.1924,51.37391,55.7003
1727355,250.5483,292.7402,51.40141,55.65912
1727388,249.9465,293.2433,51.33421,55.70494
1727419,249.3624,293.8776,51.2688,55.76254
1727451,249.0446,294.6433,51.23314,55.83185
1727485,248.4065,295.5843,51.16135,55.9167
1727518,247.836,296.2661,51.09698,55.97795
1727551,247.7498,296.3779,51.08724,55.98796
1727583,247.8298,296.635,51.09628,56.011
1727616,247.7366,296.6591,51.08575,56.01315
1727649,247.4577,296.8151,51.0542,56.02712
1727680,247.2062,297.0545,51.02572,56.04852
1727712,246.9133,297.7179,50.9925,56.10771
1727747,246.7316,297.5212,50.97187,56.09018
1727777,246.3017,297.3566,50.92298,56.0755
1727809,245.7791,297.2101,50.86341,56.06242
1727842,245.728,296.8113,50.85758,56.02678
1727875,245.5361,296.1689,50.83566,55.96922
1727908,245.4335,295.619,50.82394,55.91982
1727939,245.3262,295.6599,50.81166,55.9235
1727971,245.476,295.4707,50.8288,55.90648
1728010,245.8227,295.0253,50.86839,55.86634
1728043,246.082,294.5696,50.89795,55.8252
1728071,246.2274,294.1332,50.91452,55.78571
1728102,246.3011,293.7102,50.9229,55.74736
1728139,246.0868,294.1439,50.8985,55.78668
1728171,245.9741,294.3053,50.88566,55.80129
1728206,245.8455,294.5117,50.87099,55.81995
1728232,245.7257,294.7419,50.85732,55.84077
1728265,245.6607,294.7626,50.8499,55.84264
1728303,245.6436,294.8485,50.84794,55.85039
1728334,245.6411,295.0813,50.84766,55.87139
1728366,245.8551,295.1977,50.87208,55.88188
1728399,245.8104,295.1772,50.86698,55.88004
1728430,245.6947,295.4237,50.85378,55.90224
1728464,245.7944,295.6354,50.86516,55.9213
1728496,245.6745,295.4676,50.85147,55.9062
1728524,245.8679,295.4493,50.87354,55.90455
1728558,245.9882,295.58,50.88726,55.91631
1728593,246.1588,295.4251,50.9067,55.90237
1728623,246.376,295.2855,50.93144,55.8898
1728655,246.4468,295.1924,50.9395,55.88141
1728687,246.5475,295.0458,50.95094,55.86819
1728720,246.4371,294.9836,50.93839,55.86258
1728753,246.3571,295.0152,50.92929,55.86543
1728784,246.4696,294.8582,50.94209,55.85126
1728821,246.4182,294.8943,50.93623,55.85452
1728850,246.1785,294.925,50.90894,55.8573
1728883,245.7778,294.8002,50.86327,55.84602
1728916,245.5644,294.7147,50.83889,55.83831
1728950,245.2327,294.8355,50.80096,55.84921
1728988,245.0912,294.9327,50.78477,55.85799
1729016,244.9574,294.9409,50.76944,55.85873
1729047,244.4635,294.9767,50.71278,55.86196
1729079,244.1908,295.2685,50.68143,55.88826
1729114,243.9642,295.168,50.65536,55.87921
1729142,243.333,295.1205,50.58256,55.87493
1729178,242.9734,295.0974,50.541,55.87284
1729212,242.6538,295.2922,50.50399,55.8904
1729242,242.0836,295.5146,50.43782,55.91042
1729274,241.0105,295.584,50.31278,55.91667
1729306,240.4178,296.7347,50.24343,56.01992
1729342,239.3953,297.7595,50.12333,56.11141
1729379,238.3508,297.5869,50.00001,56.09604
1729411,236.9843,297.6164,49.83772,56.09867
1729445,236.0547,297.8143,49.72668,56.11629
1729477,235.0864,297.7638,49.61049,56.11179
1729506,234.3673,297.5975,49.52384,56.09698
1729541,234.114,297.5385,49.49325,56.09172
1729572,233.1724,297.3773,49.37918,56.07735
1729602,230.5967,297.7905,49.06441,56.11418
1729637,226.9063,297.8244,48.60637,56.11719
1729667,223.2878,296.0389,48.14903,55.95755
1729701,220.8886,294.9152,47.84124,55.85641
1729732,218.9448,294.3975,47.58916,55.80963
1729764,216.5769,294.3238,47.27878,55.80296
1729797,214.6066,293.3811,47.0177,55.71746
1729830,213.796,291.3816,46.90954,55.53487
1729860,213.6051,290.0641,46.88401,55.41362
1729894,213.5861,289.0618,46.88146,55.32088
1729926,213.5361,288.2646,46.87477,55.24682
1729959,212.9687,287.7533,46.79871,55.19916
1729992,212.546,287.5013,46.74189,55.17564
1730025,212.467,287.7251,46.73126,55.19653
1730053,212.38,287.9023,46.71955,55.21306
1730072,212.2312,287.8717,46.69952,55.21021
1730089,211.9543,287.8613,46.66217,55.20923
1730110,211.7492,287.8839,46.63448,55.21135
1730127,211.5412,287.6405,46.60638,55.18864
1730147,211.2657,287.3889,46.5691,55.16512
1730167,211.1224,287.4459,46.54969,55.17046
1730186,210.9502,287.4975,46.52635,55.17528
1730206,210.7569,287.5328,46.50012,55.17858
1730225,211.0305,287.7268,46.53723,55.19669
1730246,209.7944,287.4498,46.36915,55.17082
1730273,209.187,288.2338,46.28618,55.24395
1730311,208.5214,288.6203,46.19497,55.2799
1730344,207.6185,289.186,46.07076,55.3324
1730379,207.3352,289.7902,46.03166,55.38832
1730407,207.4822,290.5607,46.05194,55.45942
1730438,207.5256,291.197,46.05794,55.51793
1730469,207.2448,291.3248,46.01917,55.52967
1730502,207.2917,291.4723,46.02565,55.54319
1730536,207.2953,291.502,46.02615,55.54592
1730567,206.9089,291.6096,45.97273,55.55578
1730602,206.4391,292.0121,45.90765,55.59263
1730633,206.2179,292.188,45.87695,55.60872
1730665,205.9965,292.5101,45.84619,55.63814
1730697,205.8689,292.6689,45.82845,55.65262
1730728,205.7202,293.0372,45.80775,55.68618
1730759,205.4905,293.2949,45.77576,55.70963
1730793,204.9048,293.6787,45.69401,55.7445
1730829,204.5801,294.1519,45.6486,55.7874
1730858,204.2809,294.5568,45.60668,55.82404
1730893,204.2422,294.6084,45.60125,55.8287
1730925,204.2892,294.7139,45.60784,55.83823
1730958,204.1916,294.8751,45.59415,55.85279
1730992,204.3246,294.9844,45.61281,55.86265
1731023,204.2,295.1541,45.59533,55.87796
1731059,204.0171,295.5411,45.56967,55.91281
1731093,203.9217,295.6762,45.55627,55.92497
1731127,203.4822,296.1083,45.49446,55.96378
1731152,203.2908,296.2412,45.46751,55.97571
1731187,202.9566,296.1693,45.42039,55.96926
1731218,202.3642,296.6202,45.33666,56.00967
1731250,201.9386,296.9992,45.27634,56.04358
1731285,201.5448,297.2233,45.22043,56.06359
1731314,201.0104,297.5041,45.14437,56.08865
1731352,200.5381,297.6224,45.07697,56.0992
1731378,200.3151,297.5482,45.0451,56.09259
1731410,200.1959,297.4269,45.02805,56.08177
1731446,200.1138,297.4363,45.0163,56.0826
1731475,200.1042,297.4664,45.01492,56.08529
1731508,200.2101,297.5424,45.03008,56.09207
1731539,200.2118,297.5676,45.03032,56.09431
1731573,199.9116,297.9593,44.98734,56.1292
1731605,199.7901,297.991,44.96992,56.13202
1731639,199.709,297.968,44.95829,56.12998
1731671,199.6289,297.9709,44.94679,56.13023
1731702,199.6131,298.0285,44.94453,56.13536
1731733,199.6802,297.52,44.95416,56.09007
1731767,199.6222,297.3832,44.94584,56.07787
1731799,199.4257,297.2734,44.91762,56.06807
1731831,199.3819,297.1419,44.91133,56.05633
1731863,199.1705,296.9873,44.88094,56.04251
1731895,199.1464,296.6194,44.87747,56.00961
1731928,198.93,296.5971,44.84632,56.00761
1731960,198.9129,296.2913,44.84386,55.9802
1731994,198.6741,296.343,44.80944,55.98483
1732034,198.6107,295.996,44.80031,55.9537
1732060,198.3027,295.9291,44.75584,55.94769
1732092,198.3372,295.6005,44.76082,55.91816
1732127,198.3268,295.4651,44.75932,55.90598
1732157,198.6257,295.1418,44.80247,55.87685
1732188,198.7392,294.8755,44.81884,55.85282
1732221,198.8716,294.5684,44.83791,55.82509
1732254,198.8711,294.2196,44.83784,55.79353
1732285,198.9942,294.0894,44.85556,55.78174
1732320,199.0047,293.8627,44.85707,55.76119
1732352,199.0591,293.7486,44.86491,55.75084
1732384,199.1154,293.4927,44.87302,55.72761
1732414,199.2658,293.3348,44.89463,55.71326
1732447,199.3141,293.1338,44.90159,55.69498
1732480,199.3929,292.9148,44.91291,55.67503
1732514,199.538,292.7567,44.93374,55.66063
1732547,199.4723,292.8299,44.92431,55.6673
1732579,199.5595,292.8464,44.93683,55.6688
1732609,199.555,292.7955,44.93618,55.66417
1732646,199.4816,292.5473,44.92565,55.64153
1732676,199.377,292.4641,44.91062,55.63394
1732712,199.2942,292.2651,44.89872,55.61576
1732742,199.2142,292.1366,44.88722,55.60402
1732775,199.2169,291.915,44.8876,55.58375
1732809,199.2533,291.8353,44.89284,55.57645
1732838,199.3691,291.7702,44.90948,55.5705
1732871,199.7268,291.8532,44.96084,55.57809
1732907,200.3202,291.8753,45.04583,55.58012
1732934,201.4223,292.395,45.203,55.62762
1732968,203.4005,292.8979,45.48296,55.67349
1732999,206.2362,293.6336,45.87949,55.74041
1733032,208.3746,294.1432,46.17481,55.78662
1733067,210.0838,294.1416,46.40859,55.78647
1733098,211.9087,294.3068,46.65602,55.80143
1733131,214.1674,294.7748,46.95915,55.84373
1733163,216.6117,294.6228,47.28336,55.83
1733195,219.6837,295.0078,47.68527,55.86477
1733227,223.8409,296.5468,48.21948,56.00311
1733258,230.2859,299.0725,49.02616,56.228
1733290,240.2205,300.2462,50.22031,56.33162
1733323,250.8111,300.1346,51.43069,56.3218
1733355,262.302,301.3953,52.67521,56.43253
1733388,274.0563,303.1365,53.87889,56.58442
1733421,285.7825,304.545,55.0144,56.70639
1733453,297.5448,304.5148,56.09229,56.70379
1733485,308.2119,304.6449,57.02029,56.71502
1733517,318.1494,305.0739,57.84508,56.752
1733549,328.821,305.4504,58.69062,56.7844
1733588,338.3522,306.9153,59.41266,56.9099
1733616,346.0081,308.6357,59.97118,57.05622
1733651,353.2603,309.0614,60.48342,57.09226
1733682,357.5403,310.3137,60.77834,57.19785
1733714,359.9595,311.2911,60.94266,57.27985
1733745,361.9265,311.0182,61.07503,57.25699
1733780,362.048,311.0255,61.08317,57.2576
1733814,363.2584,311.8419,61.16404,57.32589
1733843,364.4223,312.5466,61.24141,57.38464
1733878,365.6463,312.9081,61.32237,57.4147
1733911,367.3263,313.5421,61.43281,57.4673
1733943,368.8808,314.0302,61.53431,57.50769
1733976,370.8205,314.0089,61.66004,57.50594
1734005,372.6735,314.1772,61.7792,57.51985
1734039,373.9797,314.2695,61.86264,57.52747
1734072,375.5922,313.8166,61.96504,57.49003
1734104,377.4833,313.4053,62.08425,57.45597
1734135,379.0752,313.6956,62.18388,57.48002
1734169,380.3585,314.0828,62.26372,57.51204
1734202,381.8593,314.2901,62.35656,57.52917
1734233,383.419,314.4703,62.45244,57.54404
1734267,387.1756,315.0399,62.68087,57.59097
1734304,391.44,315.377,62.93597,57.6187
1734333,396.3612,315.592,63.22494,57.63636
1734364,401.0706,316.6555,63.49616,57.72345
1734412,403.5057,317.2032,63.63441,57.76814
1734436,404.9631,317.319,63.71652,57.77757
1734462,406.2389,317.2648,63.788,57.77315
1734497,407.3798,317.2734,63.85162,57.77385
1734535,408.6557,317.1782,63.92244,57.76609
1734563,409.4543,317.1176,63.96657,57.76115
1734595,409.9337,317.0993,63.993,57.75966
1734624,410.5297,317.1318,64.02579,57.76231
