Time Stamp(ms),Intersection,,Angle,
,x,y,x,y
1375015,320.1508,249.5242,58.00675,51.28694
1375030,320.3565,249.5404,58.02328,51.28875
1375046,320.3163,249.2244,58.02005,51.25331
1375061,320.3886,248.9649,58.02586,51.22417
1375080,320.9748,249.1151,58.07289,51.24105
1375095,321.3968,249.151,58.10666,51.24508
1375114,321.9049,248.7963,58.14725,51.20523
1375130,322.766,248.0226,58.21582,51.11805
1375149,323.9538,247.365,58.30998,51.0437
1375164,326.2761,246.6226,58.49263,50.95948
1375182,328.3102,245.5826,58.65107,50.84097
1375203,330.1084,244.5218,58.78994,50.71947
1375215,331.9616,243.5836,58.9319,50.6115
1375233,333.488,243.2545,59.04797,50.5735
1375249,334.5804,243.2495,59.13055,50.57293
1375265,334.9893,243.8373,59.16136,50.64075
1375282,335.1265,244.317,59.17169,50.69595
1375299,334.3959,244.8467,59.11663,50.75676
1375315,333.709,245.3193,59.0647,50.81088
1375338,332.7093,246.0189,58.98885,50.89076
1375351,332.0419,246.6886,58.93803,50.96698
1375365,331.2365,247.71,58.8765,51.08274
1375382,330.2307,249.256,58.79934,51.25686
1375399,329.4423,250.6764,58.73862,51.41568
1375415,328.5121,252.3779,58.66671,51.6045
1375432,327.465,254.2033,58.5854,51.80533
1375449,326.3571,256.1123,58.49897,52.01345
1375469,325.0098,258.5503,58.39326,52.27647
1375483,323.6115,261.0717,58.2829,52.54524
1375499,321.6102,264.746,58.12373,52.9311
1375514,318.7894,269.5716,57.89693,53.42762
1375533,315.7418,274.2701,57.64865,53.90017
1375550,312.481,278.3559,57.37917,54.30258
1375566,308.2279,281.6007,57.02165,54.61666
1375582,304.1767,285.1303,56.67458,54.95289
1375600,299.9127,289.0495,56.30223,55.31974
1375618,296.4884,292.0726,55.99787,55.59816
1375632,292.4615,295.2484,55.6337,55.88646
1375649,288.2387,297.4132,55.24441,56.08054
1375668,284.5987,299.7759,54.9026,56.29016
1375685,281.4161,302.2339,54.59892,56.50583
1375702,277.6545,304.9787,54.23405,56.7438
1375716,274.2202,307.5981,53.89521,56.96812
1375731,270.9768,309.3766,53.57005,57.1189
1375748,268.5927,310.2607,53.32782,57.1934
1375765,266.0863,311.4859,53.07017,57.29614
1375783,263.3994,312.8065,52.79049,57.40625
1375799,260.9349,314.0802,52.53075,57.51183
1375814,257.9344,315.4644,52.21032,57.62587
1375832,255.4973,316.406,51.94662,57.70305
1375848,252.9639,317.3912,51.66916,57.78345
1375865,250.6648,318.5961,51.41439,57.88128
1375881,248.3647,320.0224,51.15664,57.99642
1375898,246.3661,321.3542,50.93031,58.10326
1375914,244.7271,322.028,50.74304,58.15707
1375932,242.7211,322.8908,50.51178,58.22575
1375949,241.1756,323.428,50.33206,58.26836
1375965,240.2348,323.8112,50.22198,58.29871
1375982,239.3304,324.2346,50.11568,58.33216
1375998,238.4484,324.611,50.01156,58.36186
1376015,237.8106,325.1691,49.93599,58.4058
1376033,237.4729,325.7383,49.89587,58.4505
1376048,237.1181,326.1622,49.85366,58.48371
1376065,236.3645,326.5244,49.76374,58.51205
1376082,235.7228,326.6235,49.68692,58.51979
1376099,235.1352,326.7643,49.61636,58.53078
1376114,234.473,326.9086,49.5366,58.54205
1376133,233.9308,326.8291,49.47109,58.53584
1376151,233.4521,326.845,49.41311,58.53709
1376165,233.1332,326.8724,49.3744,58.53922
1376181,232.9077,326.7118,49.34701,58.52668
1376197,233.0235,326.7593,49.36108,58.5304
1376214,233.4602,326.7294,49.41409,58.52806
1376232,234.3342,326.8117,49.51984,58.53448
1376251,234.8472,326.9142,49.5817,58.54248
1376267,235.7247,326.7565,49.68715,58.53017
1376281,236.4698,326.7225,49.77633,58.52752
1376298,237.2926,326.5707,49.87443,58.51567
1376315,238.1967,326.5679,49.98176,58.51545
1376332,238.9916,326.6098,50.07574,58.51872
1376349,239.8947,326.7712,50.18207,58.53132
1376366,240.695,326.7924,50.27589,58.53297
1376383,241.1097,326.8331,50.32436,58.53616
1376399,241.4804,326.8389,50.36761,58.53661
1376415,241.9846,326.92,50.42631,58.54294
1376432,242.615,327.028,50.49949,58.55136
1376449,243.2681,327.299,50.57507,58.57248
1376465,244.7384,327.6085,50.74434,58.59657
1376482,246.3737,328.2423,50.93118,58.6458
1376499,248.2227,328.9009,51.14064,58.69681
1376515,250.3668,329.549,51.38116,58.74685
1376531,254.3996,330.4187,51.82682,58.81379
1376549,257.9806,331.2267,52.21529,58.87575
1376566,261.8629,332.0689,52.62892,58.94009
1376581,266.986,332.7057,53.16301,58.98859
1376598,271.4035,333.1837,53.61312,59.02489
1376614,275.3266,333.8754,54.00497,59.0773
1376634,278.9774,334.9457,54.36312,59.15808
1376650,284.1724,335.6711,54.86219,59.21261
1376670,288.5793,336.5213,55.27608,59.27631
1376684,294.0797,337.0602,55.78086,59.31656
1376701,299.6781,337.8939,56.28154,59.37864
1376717,305.2946,338.1111,56.77099,59.39477
1376734,309.8831,339.1869,57.16161,59.47447
1376752,315.1974,340.2947,57.60394,59.55614
1376768,319.1378,341.4423,57.9251,59.64034
1376783,323.1742,343.6785,58.24824,59.80319
1376799,326.1674,345.1769,58.48412,59.91144
1376817,330.3368,346.5407,58.8075,60.00935
1376835,334.6633,347.5018,59.13681,60.078
1376852,338.3214,347.9469,59.41038,60.10969
1376868,342.2727,348.4803,59.701,60.1476
1376886,345.7919,349.2008,59.95566,60.19867
1376901,349.2855,349.5707,60.20466,60.22482
1376918,352.1945,350.0653,60.40915,60.25972
1376935,354.8356,350.0807,60.59259,60.26081
1376952,357.5519,350.3702,60.77913,60.2812
1376968,360.104,350.8967,60.95242,60.31823
1376989,361.8545,351.1381,61.07021,60.33518
1377001,364.4123,351.0317,61.24075,60.32771
1377018,366.6699,350.6424,61.38976,60.30035
1377034,369.3358,350.629,61.5639,60.29942
1377053,371.4511,350.6765,61.7007,60.30275
1377068,373.4254,350.1162,61.82729,60.26331
1377084,375.6084,349.5958,61.96606,60.22659
1377102,377.7592,349.4815,62.10156,60.21851
1377119,379.6374,349.3139,62.21891,60.20667
1377135,381.2343,349.2873,62.31797,60.20478
1377152,382.6718,349.2247,62.40659,60.20036
1377171,383.8133,349.1839,62.47658,60.19746
1377186,384.9524,349.7928,62.5461,60.24051
1377201,385.8206,350.3026,62.59888,60.27644
1377219,386.3042,350.6807,62.62819,60.30305
1377236,386.649,351.0295,62.64906,60.32756
1377252,387.2978,351.3909,62.68824,60.35291
1377271,387.9297,352.0231,62.7263,60.39716
1377286,388.473,352.8073,62.75895,60.45189
1377303,389.0211,353.4632,62.79181,60.49752
1377321,389.6843,353.7413,62.83147,60.51684
1377336,390.5678,354.0929,62.88415,60.54122
1377354,391.4688,354.424,62.93768,60.56414
1377370,392.3365,355.0105,62.98904,60.60468
1377388,393.0307,355.1299,63.03,60.61291
1377402,393.5943,354.8852,63.06317,60.59602
1377421,394.1223,354.6769,63.09418,60.58163
1377435,394.5924,354.2659,63.12173,60.5532
1377452,394.8971,353.3004,63.13956,60.48621
1377470,395.1712,352.3522,63.15558,60.42015
1377485,395.3999,351.3096,63.16894,60.34721
1377502,395.3638,350.1761,63.16683,60.26754
1377518,395.2194,349.2817,63.1584,60.20438
1377534,395.0088,348.1837,63.1461,60.12653
1377551,394.7551,347.1738,63.13126,60.0546
1377568,394.3394,345.8922,63.10691,59.96286
1377585,393.8975,344.6494,63.08099,59.87341
1377602,393.5768,343.8068,63.06214,59.81249
1377619,393.2355,342.933,63.04206,59.74908
1377635,392.8725,341.8937,63.02067,59.67334
1377654,392.5613,340.9803,63.00232,59.6065
1377670,392.1819,339.5705,62.9799,59.5028
1377687,391.5296,338.1172,62.94128,59.39523
1377704,390.7808,336.4593,62.89682,59.27167
1377720,390.1855,334.9255,62.86138,59.15656
1377735,389.6749,333.3152,62.83091,59.03487
1377753,389.0758,331.4043,62.79509,58.88934
1377769,388.5002,329.7533,62.76058,58.7626
1377786,387.9156,327.8923,62.72545,58.61863
1377803,387.4187,325.6258,62.69553,58.44167
1377821,387.0414,323.4518,62.67277,58.27025
1377841,386.6472,321.3034,62.64894,58.0992
1377855,385.9264,318.7079,62.60529,57.89034
1377867,384.7549,315.7245,62.53407,57.64722
1377886,383.6475,313.0964,62.46643,57.43034
1377905,382.7915,310.829,62.41394,57.24113
1377920,381.6743,308.3733,62.34515,57.03398
1377937,380.4807,305.8,62.2713,56.81442
1377953,379.343,303.1079,62.20058,56.58193
1377971,378.1757,300.8468,62.12766,56.38443
1377987,376.5264,298.5858,62.02405,56.18486
1378004,375.1886,296.3182,61.93947,55.98261
1378022,373.9394,294.2268,61.86008,55.79419
1378035,372.2807,291.4708,61.75402,55.54306
1378052,370.9445,289.0195,61.66805,55.31697
1378069,370.1732,286.5633,61.6182,55.08781
1378086,369.3138,283.7783,61.56247,54.82475
1378104,368.6303,281.046,61.518,54.5633
1378119,368.1069,278.4763,61.48386,54.31432
1378137,367.5525,276.3186,61.44762,54.1029
1378151,366.8815,273.3,61.40364,53.80346
1378173,366.1219,270.9074,61.35371,53.56304
1378185,365.3871,268.449,61.30526,53.31314
1378204,364.8088,266.0843,61.26702,53.06996
1378218,364.0441,263.6589,61.21631,52.81765
1378236,363.1308,261.2871,61.15553,52.56806
1378254,362.3338,259.2032,61.10231,52.34638
1378271,361.7753,257.522,61.06489,52.16592
1378289,361.2779,255.7939,61.0315,51.97888
1378305,360.8362,254.3621,61.00179,51.82272
1378318,360.4409,253.0184,60.97516,51.67517
1378337,360.0232,252.1539,60.94696,51.57973
1378352,359.8416,251.0813,60.93469,51.46075
1378368,359.6319,249.9799,60.92051,51.33795
1378385,359.2944,248.9716,60.89765,51.22493
1378402,358.919,248.0946,60.87219,51.12619
1378422,358.3802,246.8901,60.83557,50.98986
1378438,357.7941,245.5904,60.79565,50.84187
1378454,357.1224,244.0981,60.74977,50.67077
1378471,356.2528,242.3683,60.69018,50.47087
1378487,355.3485,240.845,60.62799,50.29344
1378506,354.0945,238.7211,60.54133,50.0438
1378523,352.2284,236.0536,60.41151,49.72655
1378541,350.6911,234.0083,60.30378,49.48046
1378556,348.6554,231.1026,60.16003,49.12654
1378573,346.044,227.9594,59.97375,48.73793
1378589,342.4484,224.683,59.71381,48.32634
1378606,339.0541,222.0362,59.46465,47.98893
1378626,335.6479,219.9617,59.21087,47.72134
1378639,331.9951,218.6063,58.93446,47.54502
1378656,328.7496,217.421,58.6851,47.38984
1378673,325.9726,216.6714,58.46887,47.29123
1378689,323.0125,216.4048,58.2354,47.25607
1378710,320.3633,215.969,58.02383,47.19849
1378724,317.745,215.7175,57.81223,47.16521
1378739,315.5564,216.0816,57.63343,47.21339
1378754,312.9778,216.9566,57.42049,47.3288
1378773,310.64,218.0243,57.22527,47.46894
1378791,308.6693,219.2613,57.05908,47.63038
1378806,306.7853,220.5407,56.8988,47.79631
1378823,305.0388,222.2527,56.74898,48.0167
1378840,303.2513,223.3889,56.59439,48.16192
1378855,300.6455,223.9391,56.36675,48.23196
1378873,298.3689,224.0521,56.16561,48.24633
1378890,296.2565,224.0804,55.97708,48.24992
1378907,294.314,223.9198,55.80208,48.2295
1378925,292.5494,223.8763,55.64172,48.22398
1378941,290.692,223.8277,55.4715,48.2178
1378957,288.7539,223.863,55.29231,48.22228
1378973,286.484,223.9934,55.08036,48.23886
1378991,283.9217,224.1773,54.83838,48.26222
1379008,281.525,224.6583,54.60939,48.32321
1379025,279.07,225.5437,54.37211,48.43511
1379041,276.8817,226.7963,54.15828,48.59259
1379060,275.0026,227.7172,53.97289,48.70774
1379074,272.6363,229.0244,53.73704,48.87028
1379090,270.6869,229.8167,53.54074,48.9683
1379107,269.148,230.1891,53.38449,49.01423
1379123,267.9327,229.4822,53.26028,48.92696
1379143,266.6781,228.957,53.13128,48.86193
1379158,265.1675,228.2945,52.97494,48.77965
1379173,263.2814,227.5257,52.77812,48.68383
1379189,261.6763,227.1983,52.60921,48.64291
1379205,260.3307,226.7752,52.46659,48.58995
1379222,258.6324,225.2601,52.28528,48.39933
1379242,256.8536,223.8011,52.09376,48.21442
1379256,255.1073,222.3593,51.90413,48.03036
1379273,253.488,220.5492,51.72684,47.79741
1379289,251.5454,218.4562,51.51231,47.52542
1379308,249.6125,216.4964,51.29683,47.26817
1379327,248.2316,215.2912,51.14164,47.1087
1379339,246.7546,214.2066,50.97447,46.96437
1379357,245.351,213.3838,50.8145,46.85437
1379374,244.2362,212.9413,50.68666,46.79502
1379391,243.6495,212.953,50.61909,46.79659
1379408,242.9651,212.8948,50.54004,46.78878
1379424,242.2438,212.8801,50.45642,46.78681
1379441,241.4174,212.6582,50.36027,46.75698
1379456,240.6867,212.3794,50.27492,46.71947
1379475,239.7795,211.9322,50.16853,46.65919
1379489,238.8118,211.261,50.05452,46.56846
1379510,237.844,210.3478,49.93994,46.44453
1379526,236.9609,209.8158,49.83493,46.37207
1379541,236.1144,209.1215,49.73383,46.27722
1379557,235.3138,208.3985,49.63783,46.1781
1379572,234.4219,207.5357,49.53043,46.05933
1379593,233.7306,206.9271,49.44685,45.97524
1379608,233.0508,206.2124,49.3644,45.87619
1379623,232.5363,205.3389,49.30181,45.75462
1379640,232.2467,204.7001,49.26651,45.66539
1379656,232.0977,204.1218,49.24833,45.58436
1379674,231.8574,203.5066,49.21897,45.49791
1379691,231.6367,203.2151,49.19199,45.45684
1379707,231.3619,203.0242,49.15834,45.42993
1379725,231.0939,203.0243,49.12548,45.42994
1379740,230.8645,203.1565,49.09732,45.44859
1379757,230.6558,203.4711,49.07167,45.49291
1379772,230.4659,203.7761,49.04832,45.53581
1379789,230.3532,204.1107,49.03445,45.5828
1379808,230.2745,204.3367,49.02475,45.61451
1379826,230.128,204.2946,49.00669,45.6086
1379843,229.9066,204.2068,48.97939,45.59629
1379857,229.6785,204.0367,48.95123,45.57242
1379874,229.5328,203.8352,48.93322,45.54412
1379890,229.4888,203.6968,48.92778,45.52467
1379907,229.4679,203.5995,48.92519,45.51098
1379926,229.5317,203.3325,48.93308,45.47339
1379943,229.5306,203.2265,48.93295,45.45846
1379958,229.6483,203.1058,48.9475,45.44144
1379975,229.9425,202.9027,48.98381,45.41278
1379992,230.2178,202.9256,49.01777,45.41601
1380008,230.7029,202.8209,49.07747,45.40123
1380023,231.0593,202.6839,49.12124,45.38187
1380042,231.3537,202.4281,49.15734,45.34569
1380058,231.6087,202.1223,49.18855,45.30239
1380074,231.823,201.9109,49.21476,45.27241
1380090,232.1372,201.3949,49.25315,45.19911
1380109,232.401,200.9076,49.28532,45.12971
1380127,232.6563,200.5062,49.31643,45.07242
1380143,232.9864,200.1173,49.35657,45.01679
1380158,233.4771,199.7369,49.41614,44.96228
1380175,234.5212,199.1241,49.54241,44.87426
1380196,235.9059,198.5477,49.70887,44.79122
1380210,237.6947,198.0357,49.92223,44.71725
1380226,240.0496,197.3701,50.20025,44.6208
1380243,242.3743,196.5876,50.47157,44.50701
1380261,245.5479,195.6756,50.83701,44.37384
1380277,248.5426,194.8397,51.17668,44.25123
1380294,252.113,193.987,51.57521,44.12562
1380311,255.6761,193.4323,51.96607,44.04363
1380330,259.5298,193.0362,52.38127,43.98494
1380348,262.4676,192.6198,52.69264,43.92311
1380363,265.6364,192.458,53.02358,43.89906
1380377,268.6864,192.3305,53.3374,43.88009
1380395,271.807,192.4819,53.65377,43.90261
1380411,274.6804,192.3797,53.94093,43.88741
1380428,277.543,192.1656,54.22313,43.85554
1380444,280.2362,191.8467,54.48517,43.808
1380459,282.6609,191.4004,54.71825,43.74133
1380476,285.3625,191.1585,54.97482,43.70515
1380493,288.2774,190.7722,55.248,43.64725
1380510,291.017,190.2536,55.50139,43.56936
1380528,293.9241,189.3692,55.76676,43.43606
1380546,296.4028,188.6022,55.9902,43.31998
1380563,298.8547,187.6401,56.20871,43.17374
1380579,301.3113,186.9439,56.42517,43.06749
1380596,303.4928,186.1496,56.61535,42.9458
1380612,305.4843,185.0354,56.7873,42.7743
1380628,306.9639,184.4794,56.91405,42.68834
1380645,308.6496,184.2708,57.05741,42.65605
1380662,310.3892,184.1288,57.2042,42.63404
1380678,311.8502,184.0129,57.32658,42.61606
1380695,313.3855,183.876,57.45432,42.59481
1380712,314.7427,183.8367,57.56651,42.5887
1380728,316.1736,183.8341,57.68403,42.5883
1380747,317.1661,183.8749,57.76511,42.59464
1380760,318.221,183.8479,57.85088,42.59045
1380777,319.2227,183.8415,57.93195,42.58945
1380794,320.2513,183.8382,58.01483,42.58894
1380812,321.1979,183.6509,58.09076,42.55984
1380828,322.0916,183.4624,58.16214,42.53054
1380845,322.8757,183.0305,58.22454,42.46327
1380862,323.6286,182.4142,58.28425,42.36703
1380877,324.3304,181.4821,58.33973,42.22093
1380894,325.0228,180.3629,58.39429,42.04459
1380912,325.5428,179.2203,58.43516,41.86357
1380928,325.9113,177.8119,58.46406,41.639
1380944,326.4702,176.5148,58.50781,41.43079
1380962,327.1567,175.1949,58.5614,41.21754
1380979,327.606,174.1982,58.59638,41.05558
1380994,328.0172,172.8954,58.62833,40.84267
1381012,328.1922,172.1028,58.64191,40.71246
1381028,328.3468,171.5955,58.6539,40.62886
1381044,328.4128,171.1907,58.65902,40.56199
1381061,328.3758,170.7916,58.65615,40.49593
1381076,328.4178,170.3838,58.6594,40.4283
1381093,328.4665,170.0718,58.66318,40.37648
1381111,328.5515,170.2239,58.66976,40.40176
1381127,328.5734,170.7437,58.67146,40.488
1381147,328.567,171.1554,58.67096,40.55614
1381161,328.4051,171.8241,58.65842,40.66655
1381178,328.2593,172.7218,58.64711,40.81418
1381193,328.0594,174.2354,58.63161,41.06164
1381213,328.0275,175.585,58.62913,41.2807
1381228,328.0351,177.8554,58.62972,41.64597
1381245,328.2153,180.6064,58.64371,42.08304
1381262,328.6804,183.9768,58.67974,42.61045
1381279,329.5369,188.2097,58.74592,43.26041
1381295,330.5252,192.3902,58.82197,43.88898
1381311,331.6451,196.8731,58.90774,44.54859
1381329,332.8597,201.477,59.00029,45.21078
1381345,334.1286,205.8122,59.09645,45.82056
1381362,335.4569,209.9593,59.19653,46.39163
1381378,336.7618,213.8737,59.29428,46.91993
1381395,338.009,217.5528,59.38719,47.40714
1381411,339.0056,220.6037,59.46106,47.80445
1381428,340.0361,223.4912,59.53711,48.17497
1381445,341.1674,226.5464,59.62021,48.56125
1381462,342.1138,229.542,59.68941,48.93435
1381477,342.8721,232.8536,59.74465,49.34043
1381494,343.4977,236.7104,59.79009,49.80505
1381511,344.1882,240.3665,59.8401,50.23742
1381529,344.8348,243.6688,59.88678,50.62132
1381547,345.3583,247.2465,59.92449,51.03028
1381564,345.7343,250.4969,59.95152,51.39568
1381585,346.0367,253.2121,59.97323,51.6965
1381597,346.4786,255.4427,60.0049,51.94067
1381612,347.0707,258.0668,60.04724,52.22456
1381629,347.7878,260.3894,60.09837,52.47284
1381646,348.3555,263.1914,60.13874,52.76868
1381664,348.7502,265.6763,60.16675,53.02772
1381679,349.0788,267.7422,60.19003,53.24074
1381695,349.3524,269.6103,60.20939,53.43155
1381712,349.537,271.5259,60.22243,53.62546
1381728,349.7941,273.5731,60.24059,53.83073
1381746,349.9796,275.5177,60.25368,54.02387
1381762,350.0825,277.224,60.26094,54.19188
1381778,350.1775,278.8557,60.26763,54.35127
1381794,350.2415,280.5707,60.27214,54.51749
1381811,350.3317,282.3199,60.27849,54.68562
1381830,350.4919,283.8601,60.28977,54.83253
1381848,350.7307,285.1552,60.30656,54.95523
1381865,350.9149,286.7223,60.31951,55.10272
1381882,350.9773,288.2032,60.32389,55.2411
1381897,351.0181,289.8756,60.32676,55.39622
1381913,351.2194,291.4854,60.34088,55.5444
1381930,351.4342,293.0222,60.35594,55.68482
1381947,351.6414,294.7225,60.37046,55.83901
1381965,351.8219,296.0706,60.38309,55.9604
1381982,352.1243,296.7046,60.40424,56.01723
1381997,352.7056,297.2813,60.44481,56.06877
1382013,353.279,297.9326,60.48472,56.12683
1382031,353.7793,298.5405,60.51947,56.18085
1382048,354.1669,299.4005,60.54634,56.25702
1382064,354.4616,300.4413,60.56675,56.34879
1382082,354.6379,301.3283,60.57893,56.42666
1382098,354.6755,302.1103,60.58154,56.49505
1382113,354.5966,302.8789,60.57608,56.56202
1382131,354.323,303.3818,60.55716,56.60572
1382147,354.0514,304.0226,60.53834,56.66125
1382165,353.6815,304.5439,60.51268,56.7063
1382181,353.3012,305.0456,60.48627,56.74956
1382197,352.8263,305.5116,60.45321,56.78965
1382213,352.2324,306.1776,60.41179,56.84681
1382232,351.7805,306.7736,60.3802,56.8978
1382248,351.2805,307.5584,60.34517,56.96474
1382265,350.8842,307.835,60.31735,56.98827
1382280,350.4305,308.3408,60.28545,57.03123
1382297,349.9644,308.8773,60.25261,57.07669
1382316,349.7728,309.5515,60.23909,57.13366
1382333,349.7253,310.3621,60.23573,57.20192
1382351,349.596,310.9524,60.2266,57.25147
1382367,349.4055,311.528,60.21314,57.29966
1382383,349.3293,311.9091,60.20776,57.3315
1382397,349.4048,312.0958,60.2131,57.34708
1382413,349.4995,312.5726,60.21979,57.3868
1382430,349.5721,313.1335,60.22492,57.43342
1382446,349.5324,313.4694,60.22211,57.46128
1382465,349.5029,313.6685,60.22003,57.47777
1382481,349.402,313.9656,60.2129,57.50235
1382497,349.1637,314.3901,60.19604,57.53743
1382514,348.5833,314.8344,60.15491,57.57405
1382530,347.6777,315.3408,60.09053,57.61572
1382547,346.2648,315.7024,59.98959,57.64541
1382564,344.1647,316.0298,59.8384,57.67226
1382582,342.0408,315.9158,59.68408,57.66291
1382598,339.7403,315.6317,59.51532,57.63961
1382614,337.0315,315.4153,59.31441,57.62185
1382632,334.2165,315.2472,59.10308,57.60803
1382649,331.8029,315.1699,58.91979,57.60167
