Time Stamp(ms),Intersection,,Angle,
,x,y,x,y
602884.8,317.7896,244.0444,57.81586,50.66459
602898.9,317.5866,243.9536,57.79935,50.65414
602913.9,317.386,243.8367,57.78302,50.64067
602931.9,317.2317,243.725,57.77045,50.6278
602948.6,317.2305,243.51,57.77036,50.60301
602965.6,317.0292,243.3935,57.75394,50.58955
602982.6,316.8713,243.1967,57.74107,50.56682
603001.4,316.857,243.1606,57.73989,50.56264
603017.3,316.8299,243.0503,57.73769,50.54989
603034.3,316.9426,243.052,57.74688,50.55009
603051.6,317.0766,243.0158,57.75781,50.5459
603068.1,317.2262,242.9713,57.77,50.54075
603082.6,317.4893,242.9545,57.79143,50.53881
603101.4,317.7719,242.9358,57.81441,50.53664
603116.8,317.8992,243.0102,57.82476,50.54525
603134.1,317.9864,243.1341,57.83184,50.55958
603150.8,317.9772,243.2071,57.8311,50.56802
603167.1,317.9547,243.1979,57.82927,50.56696
603183.9,317.885,243.1888,57.82361,50.56591
603199.2,317.7632,243.172,57.81371,50.56396
603216.1,317.6216,243.1934,57.80219,50.56643
603234.8,317.3991,243.2093,57.78409,50.56828
603250.8,317.1818,243.2354,57.76638,50.57129
603267.6,317.0518,243.1403,57.75579,50.5603
603284.6,316.8721,243.0952,57.74113,50.55509
603302.4,316.7029,243.1415,57.72731,50.56044
603318.1,316.5226,243.2831,57.71258,50.57681
603333.3,316.2866,243.3561,57.69328,50.58524
603350.3,315.9361,243.5105,57.66458,50.60307
603367.2,315.5518,243.6263,57.63305,50.61642
603384.3,315.1715,243.8809,57.6018,50.64576
603401.1,314.709,244.192,57.56372,50.68158
603416.9,314.3179,244.4701,57.53146,50.71354
603437.9,313.9777,244.6916,57.50335,50.73896
603451.2,313.6238,244.8213,57.47407,50.75385
603468.7,313.3846,244.9098,57.45425,50.76399
603484.1,313.1456,244.9489,57.43442,50.76847
603501.1,313.0439,244.9655,57.42598,50.77037
603518.5,312.9096,245.0398,57.41483,50.77889
603533.9,312.7877,244.9925,57.40469,50.77346
603552.1,312.8672,244.9389,57.4113,50.76733
603569.5,313.0078,244.8634,57.42299,50.75867
603585,313.2445,244.867,57.44263,50.75908
603602.9,313.4265,244.761,57.45772,50.74693
603618.1,313.6023,244.6748,57.47229,50.73704
603632.9,313.7678,244.5999,57.48599,50.72844
603651.5,313.7878,244.562,57.48764,50.72409
603669.1,313.6532,244.5106,57.4765,50.7182
603689.9,313.5263,244.5187,57.466,50.71912
603705,313.0323,244.6026,57.42501,50.72876
603725.9,312.7382,244.8306,57.40057,50.75491
603736.6,312.0978,245.2001,57.34724,50.79724
603753.1,311.3466,245.7074,57.2845,50.85523
603770.4,310.3293,246.5343,57.19916,50.94944
603785.1,309.1687,247.3776,57.10133,51.04514
603802.2,307.8618,248.4841,56.99055,51.17009
603818.8,306.3871,250.0573,56.86474,51.3466
603836.8,304.7963,252.0095,56.72808,51.56375
603854.3,303.2943,253.8147,56.59813,51.76272
603869.9,301.4729,255.7604,56.43932,51.97524
603886.3,299.4109,257.7914,56.25793,52.19494
603902.3,297,259.3587,56.04365,52.363
603918.9,294.7084,260.6453,55.83774,52.50003
603935,292.0696,262.0778,55.59789,52.65158
603951.6,289.4891,263.3565,55.36048,52.78599
603969.1,287.3499,264.4371,55.16148,52.89893
603985.7,285.7839,265.4402,55.01453,53.00325
604002.6,283.9639,266.6538,54.84239,53.12877
604018.7,282.4557,267.9684,54.69862,53.26394
604035.3,281.0946,269.706,54.56799,53.44128
604053.9,279.9416,271.2626,54.45667,53.59892
604070.1,278.9418,273.0101,54.35965,53.77448
604086.4,278.3361,274.4172,54.30065,53.91478
604103.1,277.6285,275.7166,54.23151,54.04353
604117.3,276.8379,276.9548,54.15398,54.16546
604135.5,276.2999,278.3272,54.10106,54.29978
604151.1,275.8067,279.9225,54.05242,54.45482
604168.3,275.5448,281.8999,54.02655,54.64537
604185.1,275.0574,283.9997,53.97831,54.84579
604202.6,274.5569,286.2002,53.92866,55.0537
604218.6,273.936,288.448,53.86691,55.26388
604235.4,273.2756,290.5917,53.80103,55.46227
604252.4,272.3524,292.5671,53.70857,55.64334
604269.7,271.6982,294.0745,53.64281,55.78039
604287.5,270.9311,295.5372,53.56544,55.91246
604302.9,269.8813,296.7273,53.4591,56.01926
604318.6,268.9275,298.0162,53.36201,56.13427
604334.5,268.0417,299.2036,53.27145,56.2396
604351.1,267.1338,300.3069,53.17822,56.33697
604369.3,266.2841,301.2823,53.09061,56.42263
604385.2,265.3854,302.43,52.99755,56.52294
604401.6,264.5402,303.431,52.90967,56.60999
604418.5,263.6476,304.3065,52.81647,56.6858
604433.9,262.8901,305.3741,52.73706,56.77784
604451.3,262.0766,306.6585,52.65145,56.88796
604467.4,261.8016,308.0533,52.62244,57.00682
604486.1,261.7219,309.302,52.61402,57.11259
604502.8,261.8871,310.3375,52.63147,57.19986
604519.8,262.962,311.2575,52.74461,57.27703
604538.6,264.295,312.0644,52.88411,57.34446
604554.4,265.7632,312.6209,53.03672,57.39082
604570.3,267.4874,313.2949,53.21458,57.44681
604587.4,268.9675,313.8788,53.36609,57.49518
604603.4,270.4889,314.2908,53.52071,57.52923
604618.5,271.8831,314.7886,53.66142,57.57028
604635.8,273.4748,315.5958,53.82092,57.63667
604654.1,274.7929,316.3377,53.95209,57.69746
604671.7,275.8471,316.9331,54.05642,57.74611
604686.8,276.9686,317.2919,54.16681,57.77536
604702.9,278.1382,317.5541,54.28133,57.79671
604720.3,278.9768,317.5774,54.36305,57.7986
604735.9,279.7094,317.6284,54.43418,57.80275
604753.3,280.2957,317.866,54.49092,57.82206
604770.6,280.8935,317.8193,54.54861,57.81827
604788,281.0825,317.4843,54.56682,57.79102
604805.6,281.259,317.4093,54.58381,57.78492
604820.8,281.4549,317.3007,54.60265,57.77608
604837.6,281.6651,317.534,54.62284,57.79507
604853.9,281.9516,317.8908,54.65033,57.82408
604870.9,282.1987,318.0106,54.67402,57.83381
604888.4,282.3851,317.9091,54.69186,57.82556
604906.1,282.28,317.915,54.6818,57.82605
604920.8,282.0863,317.9748,54.66325,57.8309
604937.1,281.8688,318.0594,54.6424,57.83777
604952.9,281.5229,318.1001,54.60919,57.84108
604970.1,281.3777,318.2168,54.59523,57.85054
604987.4,281.2073,318.333,54.57884,57.85997
605003.9,281.0464,318.2027,54.56335,57.8494
605020.5,280.9582,318.2088,54.55485,57.8499
605037.8,280.8767,318.2717,54.547,57.855
605054.2,280.8377,318.1982,54.54324,57.84903
605070.8,280.7647,318.0355,54.5362,57.83583
605088.3,280.3824,318.0438,54.4993,57.83651
605104.7,280.0263,317.912,54.46487,57.8258
605120.9,279.5997,317.8903,54.42355,57.82404
605138.8,279.0612,317.8153,54.37126,57.81794
605154,278.1643,317.4543,54.28389,57.78858
605172,277.3865,316.9351,54.20781,57.74627
605188.6,276.5818,316.0695,54.12881,57.6755
605204.7,275.9602,315.2746,54.06757,57.61028
605221.6,275.4313,313.7745,54.01533,57.48655
605247.8,275.1826,313.1392,53.99072,57.43389
605257.8,274.931,312.4497,53.96579,57.37657
605269.4,274.7238,311.4561,53.94524,57.29365
605288.4,274.6718,310.353,53.94007,57.20116
605306.7,274.7885,308.3174,53.95165,57.02925
605322.6,274.8206,305.6707,53.95484,56.80332
605340.4,274.9521,303.2191,53.96788,56.5916
605356.4,275.1334,301.0628,53.98584,56.40339
605373.5,275.4152,298.8711,54.01373,56.21016
605391.3,276.1195,296.7928,54.08329,56.02512
605406.7,277.9302,294.2325,54.26101,55.7947
605425.4,279.6848,292.3156,54.43179,55.62038
605441.8,280.9941,290.7376,54.55831,55.47571
605456.5,282.7994,288.791,54.73147,55.29576
605474.9,284.8333,286.9151,54.92481,55.1208
605491.3,286.8435,285.396,55.11408,54.97797
605507.4,289.2665,283.7375,55.33986,54.82088
605524.5,291.545,281.9701,55.54985,54.65211
605540.4,293.4746,279.7391,55.72596,54.43706
605562.4,295.2211,277.6046,55.88399,54.22917
605574.9,296.7356,275.9087,56.02,54.06249
605591.1,298.3434,273.7664,56.16335,53.85001
605608.1,299.5186,271.492,56.26746,53.62204
605624.8,300.6925,269.1965,56.37088,53.38944
605640.3,301.8733,267.0177,56.47434,53.16627
605655.7,303.5437,264.6948,56.61976,52.92577
605672.1,305.1449,262.1156,56.75811,52.65557
605691,306.2764,259.8741,56.85526,52.418
605706.9,307.655,257.5622,56.97296,52.17025
605724.3,308.7422,255.6258,57.06525,51.9606
605738.8,309.5221,253.4163,57.13118,51.71896
605754.3,310.4273,251.171,57.20741,51.47073
605777.6,311.1501,249.9466,57.26804,51.33422
605790.2,311.7423,248.6481,57.31757,51.18856
605805.8,312.1765,247.689,57.3538,51.08037
605821.8,312.6138,246.7167,57.39023,50.97018
605837.5,312.8951,245.9976,57.41362,50.88834
605854.9,313.4614,244.8808,57.46061,50.76066
605872,314.3616,243.9773,57.53507,50.65686
605891.9,315.1784,243.077,57.60238,50.55299
605906.5,315.9825,241.7134,57.66838,50.39475
605925.8,316.6864,240.2408,57.72596,50.22268
605942.1,317.5215,238.9907,57.79405,50.07563
605957.1,318.3825,238.0926,57.86398,49.96943
605972.4,319.4481,237.1972,57.95015,49.86307
605988.9,320.1875,236.1874,58.0097,49.74257
606006.3,320.5157,235.0391,58.03607,49.6048
606022.6,320.7053,234.0957,58.05128,49.49103
606038.6,320.7552,233.3165,58.05529,49.39666
606054.6,320.5562,232.4608,58.03932,49.29261
606072.7,320.2709,231.4626,58.01641,49.17067
606090,319.8427,230.2443,57.98196,49.02103
606106,319.26,228.5462,57.93497,48.81094
606122.4,318.8895,226.3708,57.90503,48.5392
606141.6,318.6779,225.1409,57.88791,48.38427
606156.2,318.2917,224.0576,57.85662,48.24702
606173.2,317.5782,223.1031,57.79866,48.12547
606189.9,316.3239,222.0119,57.69633,47.98581
606208.5,315.387,220.99,57.61951,47.85432
606223.5,314.9597,220.0466,57.58437,47.73235
606239,315.1469,220.0201,57.59978,47.72892
606255.4,315.3293,220.0003,57.61478,47.72635
606272.8,315.0857,219.9751,57.59475,47.72308
606290.4,314.6618,219.5841,57.55984,47.67234
606307,314.3179,219.1948,57.53147,47.62173
606323.1,314.0778,219.4999,57.51163,47.66141
606340.4,313.7664,220.235,57.48588,47.75675
606356.4,313.3656,221.427,57.45267,47.91064
606373.8,312.7139,222.3779,57.39856,48.03273
606390.8,312.0267,222.5889,57.34131,48.05976
606408.3,311.2014,222.1704,57.27234,48.00615
606424.7,310.6164,221.6806,57.22328,47.94326
606441.1,310.1949,221.0295,57.18786,47.85942
606457.2,309.7297,220.3907,57.14869,47.77691
606473.8,309.2179,219.5968,57.10549,47.674
606490.3,308.7029,218.7791,57.06192,47.56756
606506.3,308.3852,218.182,57.035,47.48958
606523.4,308.136,217.6699,57.01384,47.4225
606541,308.177,217.2294,57.01733,47.36467
606557.9,308.1009,216.5621,57.01087,47.27683
606572.3,308.0821,215.8624,57.00927,47.18439
606590.4,308.1391,215.5243,57.01411,47.13962
606610,308.3419,215.6172,57.03132,47.15192
606625.9,308.6398,215.8805,57.05658,47.18679
606639.9,308.7229,216.0863,57.06362,47.21401
606655.8,308.7733,216.332,57.06789,47.24646
606673.3,308.819,216.6029,57.07175,47.28221
606690.2,308.8131,216.7717,57.07125,47.30445
606706.9,308.895,216.8611,57.07819,47.31623
606728.4,309.0056,216.8319,57.08754,47.31237
606742.1,309.0303,216.5464,57.08963,47.27476
606760.8,309.0322,216.2304,57.08979,47.23305
606777.9,309.0415,215.9475,57.09058,47.19566
606796.9,309.0805,215.8553,57.09388,47.18346
606818.9,309.1151,215.78,57.0968,47.17348
606837.5,308.9732,215.7953,57.0848,47.17551
606859.6,308.71,215.8403,57.06252,47.18147
606877.1,308.4496,216.0413,57.04046,47.20806
606896.8,308.2127,216.3552,57.02036,47.24953
606918.5,307.9478,216.6987,56.99786,47.29483
606939.3,307.674,216.9676,56.97458,47.33024
606955.3,307.4547,217.1891,56.95591,47.35937
606974.9,307.2898,217.5472,56.94185,47.40641
606996.1,307.184,217.9024,56.93283,47.45297
607013.8,307.1546,218.4305,56.93033,47.52206
607035.1,307.1808,218.994,56.93256,47.59558
607053.4,307.1725,219.5437,56.93185,47.6671
607072.6,307.1684,220.2306,56.9315,47.75619
607091.7,307.1358,220.9688,56.92872,47.85159
607109.9,307.0625,221.5248,56.92247,47.92323
607127.6,306.9075,222.3123,56.90924,48.02434
607147.9,306.7021,222.8792,56.89169,48.09688
607165.1,306.5875,223.3139,56.88189,48.15237
607187.1,306.4714,223.8554,56.87196,48.22132
607199.3,306.3322,224.4841,56.86004,48.30114
607218.3,306.1461,225.003,56.8441,48.36684
607240.6,306.166,225.5175,56.84581,48.43182
607259.4,306.4735,225.8779,56.87214,48.47723
607274.3,306.8129,226.5673,56.90116,48.56387
607296.5,307.0659,227.1918,56.92276,48.6421
607311.4,307.2887,227.9463,56.94176,48.73629
607331.6,307.4749,228.7808,56.95762,48.84007
607348.8,307.6687,229.4267,56.97412,48.92009
607369.1,307.6992,229.7481,56.97672,48.95983
607387.8,307.7164,229.9694,56.97818,48.98714
607406.8,307.6308,230.1312,56.97089,49.0071
607425.2,307.5868,230.3621,56.96715,49.03554
607443.1,307.5745,230.5456,56.96611,49.05812
607460.6,307.5941,230.7749,56.96777,49.08632
607477.6,307.653,231.1477,56.97279,49.13208
607496.8,307.753,231.668,56.98129,49.19581
607516.8,308.3329,232.5733,57.03056,49.30632
607537.8,309.5009,233.7096,57.12939,49.44432
607554.8,311.0602,235.0916,57.26051,49.61112
607573.5,313.0045,236.4732,57.4227,49.77674
607591.6,315.222,237.4599,57.60595,49.89432
607608.9,318.1289,238.2301,57.84341,49.98572
607627.5,321.1296,239.0066,58.08529,50.07751
607644.9,324.5654,239.6066,58.35827,50.1482
607663.8,328.1068,239.8509,58.63528,50.17692
607682.2,331.5954,239.9675,58.90394,50.19061
607700.6,334.8938,240.0424,59.15417,50.19941
607719.8,338.0582,240.2572,59.39084,50.22461
607738.7,341.3026,240.6242,59.63011,50.2676
607757.4,344.495,240.9201,59.86226,50.30222
607775.9,348.0216,241.1989,60.11501,50.33478
607794.4,350.9725,241.3121,60.32355,50.34799
607810.7,353.9498,241.1978,60.5313,50.33465
607830.3,357.4069,241.1972,60.76922,50.33458
607848.4,361.3285,241.632,61.0349,50.38528
607867.3,365.0482,242.2491,61.28286,50.45704
607886.1,368.6608,242.9158,61.51999,50.53433
607906.4,372.9633,243.9296,61.79775,50.65137
607924.1,377.1074,244.9933,62.06063,50.77356
607943.2,380.8084,245.7724,62.29161,50.86265
607961,383.6692,245.8523,62.46776,50.87176
607981.1,386.2103,245.7287,62.6225,50.85766
608004.1,388.5414,245.514,62.76305,50.83313
608022.3,390.041,245.4136,62.85277,50.82166
608039.7,390.4765,245.1511,62.87871,50.79163
608051.4,391.1181,244.9548,62.91686,50.76915
608073.1,392.1288,244.8978,62.97676,50.76262
608092.1,392.9791,245.0834,63.02696,50.78388
608109.9,393.2823,245.2807,63.04482,50.80646
608126,393.5187,245.2963,63.05873,50.80825
608146.8,393.688,245.2764,63.06868,50.80597
608162.6,393.3712,245.4653,63.05005,50.82757
608181,392.8193,245.5553,63.01754,50.83785
608199.6,392.4348,245.3816,62.99484,50.818
608217.7,392.0526,245.2464,62.97225,50.80254
608242.6,391.357,245.0222,62.93104,50.77687
608261.4,390.7813,244.8574,62.89685,50.75798
608276.5,390.3838,244.6844,62.8732,50.73814
608294.6,390.1149,244.7047,62.85717,50.74047
608312.6,389.8124,244.7229,62.83913,50.74255
608329.9,389.4438,244.7257,62.8171,50.74287
608348.9,389.3604,244.6278,62.81211,50.73165
608367.9,389.3333,244.593,62.81049,50.72765
608386.3,389.253,244.5372,62.80569,50.72125
608405.1,389.0637,244.5475,62.79436,50.72243
608425.1,388.8575,244.623,62.78201,50.7311
608445.3,388.6452,244.6837,62.76928,50.73806
608459.3,388.3172,244.7608,62.74959,50.74691
608476.7,387.7088,244.694,62.71301,50.73925
608498.8,387.1479,244.5668,62.67919,50.72465
608515.3,386.7415,244.3608,62.65465,50.70099
608533.4,386.3781,244.2605,62.63267,50.68946
608553.4,385.9245,244.2036,62.60518,50.68291
608572.6,385.4284,244.0197,62.57506,50.66174
608589.7,385.078,243.576,62.55375,50.61061
608608.1,384.7498,243.3083,62.53376,50.57971
608626,384.331,243.1146,62.50822,50.55733
608646.3,383.9009,242.9236,62.48194,50.53524
608664.6,383.1192,242.7699,62.43406,50.51744
608681.8,382.2079,242.5873,62.37804,50.49628
608700.8,381.094,242.4344,62.30929,50.47855
608719,379.5201,242.3691,62.21161,50.47097
608742.3,377.8016,242.4125,62.10422,50.476
608759,376.1454,242.421,62.00001,50.47699
608775.2,373.7733,242.3543,61.84949,50.46925
608795.9,371.7657,242.3388,61.72094,50.46745
608815.1,369.709,242.2854,61.58812,50.46125
608831.3,367.8365,242.3097,61.4662,50.46408
608849,366.1082,242.4882,61.35281,50.48478
608868.8,364.2258,242.7841,61.22837,50.51908
608888.3,361.8102,243.0954,61.06724,50.5551
608906.3,359.0691,243.4805,60.88237,50.5996
608924.8,355.3,244.027,60.62464,50.66259
608946.9,351.8878,244.4553,60.3877,50.71184
608962.1,347.4434,244.927,60.07384,50.76596
608979.2,343.7715,245.2424,59.80993,50.80208
608994.9,338.9721,245.3435,59.45858,50.81364
609016.3,334.5914,245.4345,59.13138,50.82405
609034.9,330.1516,245.6252,58.79325,50.84584
609055,325.9527,245.9903,58.4673,50.88751
609073.4,321.8334,246.4957,58.14155,50.94505
609092.7,317.6062,247.2129,57.80094,51.02647
609110.7,312.9524,247.7128,57.41838,51.08306
609132.4,309.0376,247.9798,57.09025,51.11322
609148.5,305.4257,248.1952,56.78226,51.13753
609165.4,301.7274,248.3775,56.46159,51.15808
609181.6,298.1057,248.5515,56.14222,51.17768
609201.3,294.2272,248.7875,55.79422,51.20424
609219.7,290.4118,249.0366,55.4457,51.23223
609236.9,286.0965,249.0768,55.04395,51.23674
609257.9,282.3531,249.0153,54.6888,51.22984
609276.3,278.5182,249.0057,54.31841,51.22876
609297.8,275.0199,249.0139,53.9746,51.22968
609313.5,271.4285,249.0711,53.61564,51.23611
609332.4,267.8566,248.7896,53.25247,51.20447
609349.8,264.2375,248.6667,52.87811,51.19065
609368.6,260.8462,248.4604,52.52134,51.16742
609389.3,257.5496,248.1465,52.16889,51.13204
609406.1,254.3757,247.9313,51.8242,51.10775
609424.8,251.2916,247.6789,51.48413,51.07923
609447.3,248.5492,247.4221,51.17742,51.05017
609465.4,245.5722,247.2941,50.83979,51.03568
609482.8,243.3036,247.185,50.57917,51.02331
609498.7,241.3176,247.051,50.34863,51.00812
609516.5,239.1863,246.8107,50.0987,50.98085
609534.9,237.3102,246.4317,49.87653,50.93777
609554.7,235.5042,246.0405,49.6607,50.89323
609571.9,234.014,245.5244,49.48115,50.83433
609592.9,232.816,244.8754,49.33586,50.76004
609611.3,231.7505,243.9792,49.20591,50.65708
609629,230.6075,243.1355,49.06573,50.55975
609648.3,229.8775,242.3389,48.9758,50.46747
609668,229.2172,241.6984,48.89417,50.39301
609684.4,228.7003,241.0491,48.83008,50.31728
609701.4,228.4444,240.3584,48.79829,50.23647
609719.9,228.2605,239.5834,48.77542,50.14547
609739.2,228.1609,238.8673,48.76302,50.06107
609758.4,228.107,238.3372,48.75632,49.99841
609777.8,228.0828,237.8788,48.7533,49.94407
609797.7,228.0907,237.5532,48.75428,49.90542
609813.3,228.113,237.2209,48.75706,49.8659
609834.5,228.1526,237.0937,48.76199,49.85075
609853.6,228.1399,236.9131,48.76041,49.82923
609868.3,227.7596,236.7541,48.71303,49.81027
609888.9,227.0863,236.6236,48.6289,49.79469
609908.7,226.3305,236.5163,48.53414,49.78188
609926.6,225.5947,236.3729,48.44155,49.76475
609946.4,224.9536,236.4189,48.36059,49.77024
609963.3,224.4887,236.4412,48.30172,49.77291
609980.1,224.0436,236.4903,48.24524,49.77878
609997.6,223.6898,236.5718,48.20025,49.78852
610015.4,223.5912,236.7177,48.1877,49.80593
610031.8,223.4697,236.7442,48.17223,49.80909
610051.2,223.386,236.721,48.16156,49.80632
610075.4,223.4188,236.6646,48.16574,49.79959
610090.9,223.4487,236.5896,48.16955,49.79064
610111.1,223.4889,236.4036,48.17467,49.76842
610130.3,223.4993,236.1096,48.17599,49.73325
610148.7,223.4775,236.0108,48.17321,49.72142
610163.3,223.5251,235.817,48.17928,49.69822
610180.9,223.5215,235.7045,48.17883,49.68473
610199.3,223.4358,235.639,48.16791,49.67687
610220.1,223.4438,235.5714,48.16892,49.66876
610237.1,223.405,235.5648,48.16398,49.66797
610254.6,223.3443,235.6028,48.15625,49.67252
610276.1,223.2227,235.6621,48.14074,49.67964
610294.9,223.117,235.6434,48.12724,49.6774
610312.6,222.9989,235.6776,48.11217,49.6815
610331.2,222.9082,235.7473,48.10059,49.68985
610348.9,222.8565,235.6598,48.09398,49.67936
610365.8,222.8105,235.6534,48.08809,49.6786
610389.3,222.8331,235.6119,48.09098,49.67362
610406.5,223.0376,235.6095,48.1171,49.67332
610422.4,223.2022,235.6006,48.13812,49.67226
610440.6,223.3711,235.4969,48.15966,49.65982
610459.3,223.5477,235.5062,48.18216,49.66093
610478.6,223.6563,235.3829,48.19598,49.64613
610501.3,223.7374,235.3393,48.2063,49.64089
610514.9,223.7764,235.3687,48.21127,49.64442
610535,223.7699,235.4486,48.21044,49.65402
610553.8,223.7891,235.5529,48.21288,49.66653
610568.1,223.7882,235.7278,48.21277,49.68752
610592.4,223.7963,235.7604,48.2138,49.69143
610609.3,223.7919,235.7025,48.21324,49.68449
610628.5,223.7254,235.6888,48.20478,49.68284
610644.3,223.7175,235.7152,48.20377,49.686
610663.4,223.6964,235.6625,48.20109,49.67969
610684.6,223.609,235.7311,48.18997,49.68792
610700,223.66,235.8443,48.19646,49.70148
610717.8,223.8014,236.2238,48.21445,49.74692
610734.6,223.8552,236.5578,48.2213,49.78685
610753.9,223.8291,236.8885,48.21797,49.82629
610772.3,223.7343,237.1253,48.20591,49.85451
