Time Stamp(ms),Intersection,,Angle,
,x,y,x,y
326178.7,317.2176,252.5836,57.7693,51.62722
326194.3,316.9589,252.6099,57.74821,51.63012
326212.3,316.7539,252.5739,57.73148,51.62614
326229.1,316.4937,252.4082,57.71022,51.60784
326244.8,316.242,252.1337,57.68963,51.5775
326261.5,316.0156,251.7653,57.67109,51.5367
326278.7,315.8456,251.4573,57.65716,51.50253
326294.7,315.7068,250.8392,57.64577,51.43382
326312.7,315.6006,250.5932,57.63706,51.40641
326329.4,315.5336,250.576,57.63156,51.40449
326348,315.5327,250.773,57.63148,51.42645
326364.9,315.5345,250.6819,57.63163,51.4163
326381.1,315.6134,250.4672,57.63811,51.39236
326397.6,315.6471,250.2655,57.64088,51.36986
326412.5,315.756,250.2409,57.64981,51.3671
326430.1,315.9148,250.6218,57.66283,51.4096
326446,316.047,250.8655,57.67367,51.43674
326463.4,316.2633,251.1684,57.69138,51.47044
326479.8,316.3777,251.4251,57.70074,51.49896
326496.4,316.4391,251.6076,57.70576,51.51921
326513.2,316.5041,251.7382,57.71107,51.5337
326530.4,316.5255,251.9074,57.71282,51.55244
326546.8,316.443,252.0551,57.70608,51.56879
326563.6,316.2834,252.1356,57.69302,51.57771
326580.1,316.136,252.2786,57.68095,51.59352
326595.8,315.9799,252.4978,57.66817,51.61774
326613.7,315.8235,252.7574,57.65535,51.6464
326629.1,315.5394,253.1139,57.63204,51.68569
326654.9,315.2477,253.3427,57.60807,51.71087
326670.3,315.0558,253.468,57.59229,51.72465
326682.6,314.7641,253.5523,57.56827,51.73391
326697.8,314.4633,253.5559,57.54347,51.7343
326712.9,314.1026,253.7057,57.51368,51.75076
326729.8,313.8031,253.8094,57.48891,51.76214
326746,313.4171,253.832,57.45694,51.76463
326763,313.0403,253.9184,57.42568,51.7741
326779.6,312.5334,254.0178,57.38354,51.785
326795.3,312.1769,254.0276,57.35384,51.78607
326813.1,311.9192,254.0568,57.33234,51.78928
326828.8,311.5193,254.1503,57.29894,51.79952
326846.2,311.1573,254.3031,57.26865,51.81625
326863.3,310.6776,254.4246,57.22842,51.82956
326879.8,310.1133,254.6852,57.18099,51.85804
326895.8,309.0258,255.023,57.08925,51.89494
326914.7,307.7095,255.4649,56.9776,51.94309
326930.1,306.0528,256.0147,56.83611,52.00286
326947.4,303.7991,256.6447,56.6419,52.07116
326964.3,301.4229,257.3082,56.43494,52.14286
326981.3,298.6628,257.9728,56.19169,52.21446
326996.9,295.5198,258.7285,55.91089,52.29558
327013.9,292.1365,259.639,55.60401,52.39293
327030.5,288.6762,260.8152,55.28509,52.51805
327050,285.3518,261.8475,54.9738,52.62729
327063.9,281.8188,262.8091,54.63759,52.72855
327081.4,278.0884,263.6303,54.27647,52.81466
327098.9,274.4811,264.2238,53.92114,52.87669
327115.5,270.8147,264.7589,53.55368,52.93244
327131.8,267.1664,265.1896,53.18158,52.97723
327148,263.063,265.4454,52.75521,53.00378
327166.3,259.2332,265.6937,52.34959,53.02952
327182.7,255.2838,265.8327,51.92337,53.04392
327200.6,252.0136,266.1369,51.56421,53.07539
327215.8,248.6259,266.3474,51.18605,53.09716
327231.1,245.1697,266.3759,50.79376,53.10009
327248.6,242.1048,266.4366,50.44028,53.10636
327266,239.2657,266.2156,50.10806,53.08353
327283.2,236.705,266.0435,49.80441,53.06574
327300.3,234.5756,265.7325,49.54897,53.03355
327316.6,232.8969,265.3507,49.3457,52.99395
327331.6,230.7213,265.2625,49.07972,52.9848
327350.8,228.9967,265.1746,48.86685,52.97567
327365.6,227.3034,265.0445,48.65606,52.96215
327382.8,225.8732,265.1115,48.47664,52.96912
327399.1,224.9482,265.3035,48.35991,52.98906
327414.7,224.0251,265.6205,48.24289,53.02194
327434.3,223.3365,266.0397,48.15525,53.06535
327449.3,223.0101,266.5274,48.1136,53.11573
327468.4,222.7435,266.8998,48.07952,53.15413
327485.6,223.217,267.0404,48.14001,53.16861
327503.8,223.6616,267.1595,48.19667,53.18087
327517.5,224.3832,267.1416,48.28835,53.17903
327533.5,225.7032,266.951,48.45522,53.15941
327551,226.9906,267.0006,48.61692,53.16452
327569.1,228.3653,267.0821,48.78846,53.1729
327586.7,230.1361,266.9961,49.00769,53.16405
327603.4,231.8622,267.0785,49.21956,53.17253
327618.4,233.5385,267.1714,49.42358,53.18209
327631.9,236.038,267.2477,49.72469,53.18995
327652.6,239.0695,267.3471,50.08493,53.20016
327670.5,241.9529,267.6259,50.42262,53.2288
327683.8,245.3272,267.6397,50.81178,53.23022
327699.3,248.5876,267.6371,51.18175,53.22995
327713.9,253.3536,267.4808,51.71207,53.2139
327732.5,257.9966,267.5075,52.21701,53.21664
327748.6,264.5161,267.4193,52.90717,53.20759
327765.7,270.7051,267.4067,53.54259,53.20629
327782.3,277.294,267.3713,54.19874,53.20266
327798.3,285.4375,267.1196,54.98189,53.17676
327816.5,293.3384,266.891,55.71358,53.15322
327833.6,301.02,266.6536,56.39963,53.12875
327851.6,308.551,266.0456,57.04906,53.06595
327867.7,314.7502,265.7672,57.56712,53.03714
327882.4,321.7545,265.5357,58.13525,53.01315
327900.4,328.4257,265.2927,58.66002,52.98793
327916.9,334.3036,265.2591,59.10966,52.98444
327931.7,341.3863,265.0545,59.63624,52.96319
327951.4,347.047,264.7856,60.04554,52.93523
327967.6,352.9411,264.3536,60.46121,52.89022
327983.8,359.5672,263.8725,60.91613,52.83999
328001.2,364.7563,263.4145,61.26355,52.79206
328016,370.0843,263.0137,61.61244,52.75003
328033.7,375.2631,262.6028,61.94419,52.70687
328050.6,379.9705,262.1606,62.23962,52.66031
328067.1,384.1543,261.8092,62.49743,52.62324
328086.3,387.1134,261.571,62.67711,52.59808
328101.7,389.7007,261.2081,62.83245,52.55969
328118.2,391.9562,261.033,62.96655,52.54115
328135.3,393.8496,261.0552,63.07817,52.5435
328153,395.1351,261.0507,63.15347,52.54302
328168,395.8969,260.9688,63.19791,52.53434
328184.6,396.2406,260.6956,63.21792,52.50536
328201.5,396.6657,260.4782,63.24263,52.48228
328217.1,397.0129,260.1889,63.26277,52.45152
328234.8,397.0062,260.1467,63.26238,52.44703
328251.7,397.1334,260.1166,63.26976,52.44382
328268.3,397.0483,260.2374,63.26483,52.45668
328284.1,397.1022,260.2551,63.26795,52.45856
328303.5,397.329,260.2915,63.28109,52.46243
328321.2,397.5533,260.3749,63.29407,52.47129
328334.4,397.792,260.5798,63.30788,52.49307
328350,398.066,260.8864,63.32371,52.5256
328367,398.4997,261.1861,63.34873,52.55736
328383.5,399.007,261.4464,63.37794,52.58492
328399.7,399.5521,261.631,63.40926,52.60443
328416.2,400.1018,261.8542,63.44078,52.62799
328433.6,400.598,262.1507,63.46917,52.65927
328450.7,401.1206,262.4363,63.49901,52.68935
328467.6,401.425,262.6545,63.51636,52.7123
328483.8,401.5792,262.724,63.52515,52.71961
328499.3,401.6873,262.6625,63.5313,52.71314
328516.2,401.6682,262.5229,63.53021,52.69847
328533.4,401.5579,262.2018,63.52393,52.66465
328550.5,401.3145,261.8658,63.51007,52.62922
328567.3,401.2034,261.5497,63.50373,52.59583
328585,401.0741,261.3351,63.49636,52.57314
328602.4,400.9523,261.1132,63.48941,52.54964
328617.7,400.8619,260.7522,63.48425,52.51137
328634.6,400.7434,260.2053,63.47748,52.45326
328652,400.5859,259.5632,63.46848,52.38484
328669,400.5341,258.9249,63.46552,52.31662
328686.9,400.5594,258.7274,63.46696,52.29546
328702.1,400.686,258.7121,63.4742,52.29382
328718.7,400.8551,259.0461,63.48386,52.32959
328735.4,400.8934,259.3595,63.48605,52.36309
328752.5,400.9312,259.6852,63.4882,52.39786
328767.9,400.9903,260.045,63.49158,52.4362
328787.1,401.1055,260.1698,63.49815,52.44949
328803.2,401.2362,260.324,63.5056,52.46589
328819.1,401.4209,260.4393,63.51613,52.47815
328834.8,401.684,260.7895,63.53111,52.51532
328853.9,401.8818,261.184,63.54236,52.55714
328870.1,401.9402,261.5339,63.54568,52.59416
328886.6,402.1906,261.7364,63.55991,52.61555
328904.3,402.5273,262.0112,63.57903,52.64456
328921.4,402.8792,262.2182,63.59897,52.66638
328938,403.2258,262.5493,63.61859,52.70124
328952.9,403.4573,262.899,63.63168,52.738
328971.2,403.645,263.2804,63.64228,52.77801
328987.4,403.8901,263.5188,63.65611,52.80298
329003.8,404.2225,263.8481,63.67485,52.83743
329020.5,404.6067,264.0968,63.69648,52.86343
329036.5,404.8622,264.307,63.71085,52.88536
329054.4,405.0831,264.5932,63.72326,52.91519
329069.8,405.1097,264.7756,63.72475,52.93419
329086.8,405.1613,264.9515,63.72765,52.95249
329105.6,405.1198,265.1092,63.72532,52.96887
329121.3,404.9856,265.2054,63.71778,52.97887
329137.8,404.7359,265.2915,63.70375,52.9878
329154.6,403.9414,265.4304,63.65901,53.00222
329172,403.0545,265.7195,63.60889,53.0322
329189.3,401.7619,265.9005,63.53554,53.05094
329210,399.5771,266.1314,63.41069,53.07483
329223.2,397.1296,266.3474,63.26954,53.09715
329238.4,394.0999,266.9701,63.09286,53.16138
329254.2,389.1019,267.8456,62.79665,53.25134
329272.3,383.4863,268.5637,62.45656,53.32486
329289.3,376.4596,269.4638,62.01983,53.41665
329305.5,369.6532,270.4319,61.5845,53.51493
329322.2,362.424,271.3902,61.10834,53.61178
329340.7,354.7389,272.3407,60.58591,53.70739
329356.3,348.5821,273.1564,60.15483,53.78911
329371.9,341.9525,273.9354,59.67764,53.86685
329386,335.1274,274.7517,59.17175,53.948
329404.8,328.6855,275.4574,58.68014,54.01791
329420.6,321.9932,276.1655,58.1543,54.08781
329436.7,316.1796,276.6977,57.68452,54.1402
329452.5,309.7789,276.7619,57.15284,54.14651
329471.3,304.3881,276.5353,56.69285,54.12423
329487.5,299.2359,276.0945,56.24246,54.08082
329503.5,294.0634,275.6091,55.77938,54.03291
329519.7,289.5356,275.0635,55.36479,53.97892
329535.5,284.6316,274.7326,54.90572,53.94611
329553.6,280.0033,274.0756,54.46264,53.88081
329571.1,275.6283,273.5745,54.0348,53.83087
329590.5,271.6157,273.4857,53.6345,53.822
329605.7,268.0995,273.7031,53.27737,53.8437
329621.8,264.7498,274.0424,52.9315,53.87751
329637.8,261.7293,274.4103,52.61481,53.9141
329655.8,258.2745,274.7299,52.24688,53.94585
329673.2,255.7083,275.0312,51.96958,53.97572
329687.5,253.45,275.3805,51.72267,54.0103
329704,251.1484,275.5617,51.46822,54.02822
329721.2,249.0685,275.514,51.23581,54.02351
329737.2,247.1633,275.1279,51.02085,53.9853
329754.4,245.3632,274.8795,50.8159,53.96068
329772.2,243.9306,274.7344,50.65149,53.94629
329787.3,242.8044,274.6728,50.52143,53.94017
329805.8,242.2642,274.2548,50.45879,53.89864
329823.1,241.7579,273.7187,50.39994,53.84526
329838.1,241.3909,273.3255,50.35718,53.80601
329854.4,241.0316,272.83,50.31524,53.75645
329872.4,240.8037,272.5455,50.28861,53.72794
329888,240.8175,272.3103,50.29021,53.70434
329904.4,241.2235,272.0031,50.33764,53.67349
329920.7,241.4922,271.5036,50.36899,53.62321
329937.1,241.8801,271.0059,50.41415,53.57299
329953.5,242.3555,270.3545,50.46939,53.50709
329971,242.6229,269.9687,50.50041,53.46796
329987.7,242.8186,269.6951,50.52307,53.44017
330004.2,243.3332,269.284,50.58259,53.39834
330020.3,243.2671,268.7044,50.57495,53.33923
330037.5,243.2463,268.116,50.57255,53.27905
330053.5,243.1566,267.4532,50.56218,53.21107
330071.9,242.9935,266.776,50.54333,53.14138
330091.6,242.9527,266.2703,50.5386,53.08918
330105.6,242.8937,265.7493,50.53177,53.03528
330122.5,242.7464,264.8958,50.51472,52.94669
330138.5,242.2623,264.1307,50.45857,52.86697
330154.3,241.7596,263.3127,50.40013,52.7814
330171.2,241.0807,262.1949,50.32098,52.66393
330188.4,240.5617,260.8579,50.26028,52.52259
330204.3,239.8987,259.1019,50.18253,52.33555
330222,239.1837,257.8062,50.0984,52.19653
330238.7,238.654,256.8744,50.03587,52.09601
330253.4,238.1524,255.6896,49.97652,51.96754
330272.3,237.7564,254.7157,49.92955,51.86138
330289.2,237.5988,253.7546,49.91083,51.75613
330306.3,237.4519,252.9779,49.89337,51.6707
330320.8,237.2757,252.2765,49.87242,51.59328
330337.4,237.0719,251.5915,49.84815,51.51743
330353.6,236.9531,250.6887,49.834,51.41706
330371.2,236.7202,249.813,49.80622,51.31928
330388.1,236.3263,248.6603,49.75917,51.18993
330408.1,236.0901,247.9305,49.73093,51.10765
330424.6,235.8111,247.0304,49.69751,51.00579
330440.3,235.6136,246.1835,49.67383,50.90952
330456.1,235.5052,245.4102,49.66082,50.82127
330473.2,235.4962,244.8746,49.65973,50.75995
330492.6,235.3205,244.3321,49.63863,50.69768
330507,235.2179,243.398,49.6263,50.59008
330524.6,235.1197,242.6189,49.61449,50.49994
330540.4,235.0967,241.8745,49.61173,50.41351
330556.9,235.1208,240.9406,49.61463,50.30461
330573.1,235.2544,240.0304,49.63069,50.198
330592.2,235.7114,239.0822,49.68555,50.08643
330608.2,236.5913,238.399,49.79084,50.00571
330624.3,237.472,237.6595,49.89576,49.91805
330641.6,238.5215,237.0414,50.02021,49.84452
330656.9,240.1149,236.6407,50.20791,49.79673
330674.7,241.7292,236.6256,50.39659,49.79493
330691.3,243.4026,236.9719,50.59061,49.83624
330707.4,245.3654,238.1283,50.81615,49.97366
330724.8,247.3204,239.2946,51.03866,50.11146
330741.6,249.0737,240.1931,51.2364,50.21709
330757.4,250.7177,240.5073,51.42029,50.25391
330776.8,251.9765,240.3384,51.5601,50.23412
330791.7,252.5186,240.7088,51.62004,50.27751
330807.8,252.8831,241.1716,51.66026,50.33159
330824.5,252.915,242.0919,51.66377,50.43878
330840.7,252.9472,242.8705,51.66732,50.52909
330859.8,252.766,243.4519,51.64735,50.5963
330874.4,252.3175,243.9226,51.59782,50.65057
330891.7,251.962,244.2453,51.55849,50.6877
330908.5,251.5241,244.244,51.50995,50.68756
330925.2,251.1503,244.2658,51.46844,50.69006
330940.8,250.868,244.3219,51.43703,50.69651
330957.6,250.7092,244.2823,51.41933,50.69196
330974.7,250.8503,244.181,51.43505,50.68031
330991.4,251.2024,244.2034,51.47423,50.68289
331008.8,252.1125,244.0407,51.57515,50.66417
331025.6,253.2786,244.2453,51.70381,50.68771
331041.5,254.7615,244.4234,51.86639,50.70818
331056.2,256.0811,244.5688,52.01007,50.72488
331072.3,257.5584,244.783,52.16984,50.74945
331089.6,259.3696,245.2027,52.36417,50.79754
331108.7,260.4867,245.7288,52.48318,50.85767
331125.3,260.4545,246.9289,52.47976,50.99427
331142.2,260.4419,248.3481,52.47842,51.15477
331159.4,260.323,249.8448,52.46578,51.32284
331174.6,259.5099,251.7854,52.37915,51.53893
331192.1,258.7089,253.2534,52.29348,51.70104
331209.2,257.7643,254.6514,52.19201,51.85436
331226.8,257.0737,255.82,52.11755,51.98172
331245.9,256.4211,256.558,52.04695,52.06177
331257.8,255.8176,257.0699,51.98146,52.11714
331274.5,255.2578,257.6276,51.92054,52.1773
331291.3,254.8961,257.8539,51.88108,52.20166
331308,254.6616,257.8818,51.85546,52.20467
331325.3,254.4555,258.1407,51.83294,52.2325
331341.3,254.3381,258.2899,51.82008,52.24853
331358.8,254.3962,258.4759,51.82645,52.26849
331374,254.6487,258.7293,51.85405,52.29567
331391.4,255.0574,259.0167,51.89869,52.32644
331407.7,255.6237,259.2564,51.96038,52.35208
331424.9,256.0094,259.547,52.00229,52.38311
331440.8,256.3896,259.8974,52.04353,52.42048
331457.7,256.6559,260.3634,52.07237,52.47008
331474.8,256.7745,260.9052,52.08521,52.5276
331491.2,256.7335,261.4456,52.08077,52.58482
331510,256.685,262.0357,52.07552,52.64714
331525.1,256.134,262.5678,52.01582,52.70318
331541.8,255.4739,263.0961,51.94407,52.75868
331558.7,254.8252,263.6615,51.87334,52.81792
331575.6,253.8838,264.2336,51.77031,52.87771
331593.8,253.3139,264.817,51.7077,52.93849
331608.7,252.7564,265.5195,51.64629,53.01147
331624.8,251.8729,266.2164,51.54862,53.08361
331642.1,251.1838,266.8587,51.47215,53.14989
331658.4,250.5762,267.3543,51.40452,53.20091
331674.7,250.2607,267.7419,51.36931,53.24071
331692.7,249.9718,268.3425,51.33703,53.30225
331709.7,249.748,268.9579,51.312,53.36511
331727.8,249.4861,269.7947,51.28267,53.4503
331744.6,249.3201,270.8191,51.26405,53.55412
331767.5,249.2782,271.5862,51.25935,53.63153
331777.7,249.5502,271.7979,51.28986,53.65284
331792.8,249.9364,272.0775,51.33308,53.68096
331809.1,250.237,272.4212,51.36667,53.71548
331827.7,250.4714,272.8421,51.39283,53.75766
331843.2,250.7341,273.4324,51.42211,53.81669
331858.8,251.0974,273.9185,51.46254,53.86517
331874.6,251.869,274.7918,51.54819,53.95199
331892.4,252.6799,275.8693,51.63785,54.0586
331910.2,253.534,276.9329,51.7319,54.16331
331926.2,254.556,278.1032,51.84392,54.27792
331946,255.3524,279.2319,51.93084,54.38784
331960.9,256.395,280.1811,52.04411,54.47984
331977.5,257.2131,280.4872,52.1326,54.50941
331994.4,257.9995,280.5261,52.21732,54.51318
332011.5,258.8513,280.2908,52.30874,54.49044
332028.6,259.6512,280.4428,52.39423,54.50513
332045.5,260.4228,280.7455,52.47639,54.53434
332060.9,261.4797,281.0408,52.58843,54.56281
332077,262.4228,281.2336,52.68793,54.58137
332093.2,263.4597,281.6346,52.7968,54.61992
332111.4,264.4737,282.6776,52.90274,54.71984
332127.8,265.7275,284.5035,53.03303,54.89359
332145.5,266.81,285.8835,53.14488,55.02392
332161.6,267.927,287.18,53.25969,55.14559
332178.6,269.0509,288.4783,53.3746,55.2667
332194.9,270.3427,289.7767,53.5059,55.38708
332212.4,271.9285,290.5929,53.66598,55.46238
332230.1,273.3109,290.9362,53.80455,55.49397
332245.5,274.8752,291.2528,53.96025,55.52306
332263.3,276.2054,291.5851,54.09175,55.55353
332278.7,277.672,291.995,54.23576,55.59107
332296.1,278.9548,292.1514,54.36092,55.60538
332311.9,280.1569,291.6933,54.4775,55.56345
332329.3,281.5311,291.2321,54.60997,55.52115
332345.6,282.8253,290.6479,54.73394,55.46745
332364.8,283.7271,290.2891,54.81989,55.43439
332379.1,284.3734,289.8925,54.88125,55.39779
332396.7,284.7261,289.8414,54.91466,55.39306
332414.1,285.3162,290.2224,54.97044,55.42824
332429.1,285.8373,290.8084,55.01957,55.48222
332443.6,286.3416,291.0845,55.06699,55.5076
332462.1,286.5802,290.5945,55.0894,55.46253
332480.1,286.3345,289.478,55.06633,55.35945
332495.8,285.4811,287.8737,54.986,55.2104
332512.4,284.6829,286.2455,54.91058,55.05796
332530,283.7515,283.9187,54.82221,54.8381
332550.1,282.9625,282.1129,54.74705,54.6658
332563.8,282.0815,280.7866,54.66278,54.53831
332578.6,281.1489,280.2615,54.57322,54.48761
332596.1,280.1732,280.1108,54.47908,54.47305
332616.2,279.3732,279.9737,54.40157,54.45978
332631.3,278.2985,280.1106,54.29698,54.47303
332647.1,277.1515,280.3035,54.18477,54.49167
332663.9,276.1051,280.5179,54.08186,54.51239
332680.5,274.9668,280.2112,53.96934,54.48275
332697.2,273.9135,279.761,53.86467,54.43918
332712.3,272.6902,279.613,53.74245,54.42483
332727.8,271.64,279.5065,53.63695,54.4145
332744.2,270.5146,279.1965,53.52332,54.38441
332762.5,269.5513,279.0542,53.42556,54.37057
332777.9,268.4596,278.7059,53.31422,54.33669
332797,267.4073,278.2025,53.20634,54.28761
332811.4,266.3211,278.0251,53.09444,54.27029
332830.2,265.2635,278.4637,52.9849,54.31309
332849.2,264.2657,278.5008,52.88105,54.3167
332863.1,263.2759,278.6126,52.77754,54.3276
332879.2,262.4974,278.7164,52.69578,54.33771
332894.6,261.758,278.7384,52.61784,54.33986
332913.6,261.063,278.8546,52.54433,54.35117
332930.2,260.4055,278.603,52.47456,54.32667
332946.6,259.8842,278.1626,52.41907,54.28372
332962,259.3485,277.7555,52.36192,54.24393
332977.6,258.8027,277.3556,52.30352,54.20478
332993.9,258.1392,277.0304,52.23234,54.17288
333012.1,257.5598,276.7562,52.16999,54.14595
333028,257.1108,276.2614,52.12155,54.09727
333045,256.9148,275.5965,52.10037,54.03166
333061.8,256.9875,275.1064,52.10823,53.98317
333078.6,257.0865,275.032,52.11893,53.9758
333095.5,257.5227,274.8498,52.16599,53.95774
333112.1,258.0128,274.8326,52.21875,53.95603
333128.2,258.6,274.8743,52.28181,53.96016
333143.9,259.3029,275.1345,52.35704,53.98595
333164.9,260.0114,275.1587,52.43262,53.98835
333178.3,260.6971,274.8045,52.50552,53.95325
333193.8,261.4442,274.2849,52.58468,53.90163
333211.5,262.0221,274.1282,52.64571,53.88605
333227.8,262.369,274.2093,52.68226,53.89412
333244.6,263.1266,273.9816,52.76189,53.87146
333260.8,264.1729,273.3005,52.87137,53.80351
333278.3,264.9255,272.7682,52.94978,53.75027
333294.6,265.5426,272.2123,53.01386,53.6945
333311.1,266.137,272.0046,53.07541,53.67364
333327.8,266.7059,271.7679,53.13415,53.64983
333344.8,267.1834,271.5625,53.18333,53.62915
333362.1,267.297,270.9255,53.19501,53.56487
333377.7,267.4041,270.3896,53.20602,53.51065
333396.7,267.4167,269.9104,53.20732,53.46205
333419.3,267.3167,269.3915,53.19704,53.40929
333434.1,267.1034,268.8082,53.17509,53.34983
333445.5,266.5715,268.0737,53.12028,53.27472
333460.8,265.7574,267.4377,53.03612,53.20947
333478.3,265.1835,267.0428,52.97659,53.16886
333493.4,264.5345,266.5639,52.90908,53.1195
333513.4,263.8338,266.1378,52.83595,53.07549
333531.3,263.1541,265.8831,52.76477,53.04913
333547.8,262.4784,265.7002,52.69378,53.03019
333563.3,261.8228,265.5652,52.62468,53.0162
333579.8,261.153,265.7312,52.55385,53.03341
333596.3,260.6509,265.9305,52.50062,53.05404
333614.9,260.1088,266.2828,52.44299,53.09047
333630.9,259.3085,266.5889,52.35764,53.12208
333646.4,258.7414,266.6987,52.29696,53.1334
333664,258.0357,266.7694,52.22122,53.1407
