Time Stamp(ms),Intersection,,Angle,
,x,y,x,y
489738.8,314.2989,240.7108,57.5299,50.27773
489755,314.4582,240.5018,57.54305,50.25328
489771.1,314.5293,240.4206,57.54891,50.24376
489787.8,314.564,240.3341,57.55177,50.23363
489805.9,314.5778,240.2746,57.55291,50.22664
489823.1,314.6649,240.0639,57.56009,50.20192
489838.4,314.78,239.8749,57.56957,50.17973
489854.3,314.8391,239.6929,57.57444,50.15835
489872.7,314.9269,239.4956,57.58168,50.13513
489889.1,315.0555,239.4339,57.59226,50.12787
489907.5,315.0709,239.4866,57.59353,50.13408
489923.7,315.1382,239.3603,57.59906,50.11921
489938.3,315.213,239.2244,57.60522,50.1032
489958.4,315.3321,239.1615,57.61501,50.09578
489972.3,315.2619,239.2078,57.60924,50.10123
489990.4,315.1988,239.2489,57.60405,50.10608
490008.2,315.0841,239.2829,57.59461,50.11008
490024,314.9286,239.3687,57.58182,50.12019
490039.9,314.7076,239.3103,57.56361,50.11332
490055.8,314.407,239.4178,57.53882,50.12598
490074.5,314.1526,239.5569,57.51782,50.14235
490090,313.961,239.722,57.50197,50.16177
490107,313.716,239.8451,57.4817,50.17623
490123.6,313.4764,240.0825,57.46186,50.20411
490140.9,313.2225,240.2878,57.4408,50.22819
490157.3,313.006,240.4784,57.42282,50.25054
490174,312.8462,240.7411,57.40955,50.28128
490189.7,312.508,240.75,57.38142,50.28232
490206.3,311.9677,240.8288,57.3364,50.29154
490222.3,311.4821,240.9676,57.29583,50.30776
490239.3,310.8506,241.0465,57.24294,50.31699
490255,310.16,241.2101,57.18493,50.33608
490273.1,309.1758,241.1547,57.10194,50.32962
490287.7,308.1729,241.0672,57.01698,50.3194
490304.6,307.0515,240.9415,56.92152,50.30471
490321.4,305.7734,241.0317,56.81214,50.31525
490337.1,304.5787,241.1793,56.70931,50.33249
490354.2,303.2778,241.352,56.59669,50.35264
490371.8,302.1491,241.437,56.49844,50.36255
490387,300.9546,241.594,56.39389,50.38085
490404,299.7924,241.6176,56.29163,50.38359
490422,298.6904,241.6478,56.19415,50.38712
490437.7,297.6396,241.8523,56.10073,50.41092
490453.9,296.5025,242.0211,55.99913,50.43055
490471.1,295.4392,242.1565,55.90364,50.44628
490487.1,294.4141,242.2601,55.81113,50.45832
490504.2,293.3186,242.5498,55.71178,50.49193
490521.3,292.2886,242.9317,55.61792,50.53617
490538.2,291.1841,243.6689,55.51674,50.62134
490553.8,289.6162,244.3432,55.37224,50.69896
490571.6,288.3762,245.0692,55.2572,50.78225
490588.1,286.9622,245.9241,55.12521,50.87996
490604.9,285.2863,246.748,54.96762,50.97372
490621.3,283.7232,247.5434,54.81952,51.0639
490637.5,281.7314,248.5159,54.62921,51.17367
490655.7,279.3266,249.505,54.39705,51.28479
490672.8,276.1514,250.5833,54.08642,51.40531
490690.6,273.1883,251.3693,53.7923,51.49277
490707.7,269.6806,251.9768,53.4387,51.56013
490724.4,266.4909,252.658,53.11197,51.63543
490738.7,263.2177,253.276,52.77143,51.70353
490755.8,259.3055,253.8794,52.35732,51.76982
490773.4,255.7971,254.4918,51.97923,51.8369
490792.3,252.7686,254.9642,51.64764,51.88852
490809.1,249.4626,255.3377,51.28003,51.92924
490822.9,246.3906,255.7296,50.93309,51.97189
490838.6,243.1654,255.9833,50.5632,51.99945
490854.1,239.2702,256.3904,50.10859,52.04361
490873.3,236.2052,256.766,49.7447,52.08428
490888.8,233.0081,256.9488,49.35922,52.10405
490910,230.3518,257.1866,49.03427,52.12974
490925.4,228.0957,257.4047,48.7549,52.15327
490940.3,226.0795,257.5671,48.5026,52.17078
490956.7,224.149,257.6992,48.25863,52.18502
490974.3,222.3072,257.7621,48.02369,52.19178
490991.3,220.8437,257.7115,47.83545,52.18633
491007.3,219.4959,257.5105,47.66088,52.16468
491025,218.3965,257.3098,47.51762,52.14303
491039.2,217.2377,257.288,47.36576,52.14068
491056.7,216.3194,257.3038,47.24479,52.14239
491074,215.5756,257.331,47.14642,52.14532
491092,214.8071,257.3219,47.04438,52.14434
491107.9,214.1588,257.2687,46.958,52.1386
491123.9,213.9384,257.0954,46.92858,52.11989
491141.5,213.7555,257.1234,46.90412,52.12291
491156.4,213.8825,257.1204,46.9211,52.12259
491174.4,214.0811,257.0411,46.94764,52.11403
491190.5,214.3068,256.9803,46.97775,52.10745
491206.6,214.6868,256.8045,47.02838,52.08845
491224.7,215.0016,256.6694,47.07024,52.07383
491240,215.2867,256.5844,47.1081,52.06463
491255.9,215.583,256.4944,47.1474,52.05488
491274.5,215.8376,256.4341,47.18112,52.04835
491290.2,216.1034,256.2888,47.21627,52.0326
491306.4,216.4487,256.2114,47.26187,52.02421
491325.3,216.8277,256.186,47.31183,52.02145
491342.8,217.3243,256.1492,47.37714,52.01746
491358.9,217.818,256.1516,47.44192,52.01773
491376.7,218.3652,256.2099,47.51353,52.02405
491394.7,218.6854,256.2224,47.55535,52.02541
491409.3,218.577,256.5042,47.54119,52.05594
491427,218.9863,256.5765,47.59458,52.06378
491446.6,219.1469,256.8815,47.61549,52.09678
491460.2,219.1282,256.9018,47.61306,52.09897
491477.8,219.3234,256.887,47.63845,52.09737
491491,219.4858,256.9045,47.65957,52.09927
491508.3,219.7241,256.7697,47.69052,52.08469
491526.7,220.0624,256.7444,47.73439,52.08195
491543.1,219.9849,256.6472,47.72436,52.07143
491559,219.7259,256.7211,47.69075,52.07943
491576.5,219.6579,256.7003,47.68193,52.07718
491593.3,219.4745,256.4976,47.6581,52.05523
491609.8,219.1583,256.3156,47.61697,52.03551
491629.1,218.819,256.3422,47.57276,52.03839
491643.3,218.3729,256.3677,47.51453,52.04116
491659.1,218.0096,256.43,47.46702,52.04791
491674,217.5623,256.589,47.40839,52.06513
491693,217.1733,256.8433,47.3573,52.09265
491709.3,216.944,256.9796,47.32713,52.10738
491725.5,216.7671,257.0682,47.30385,52.11695
491742.8,216.707,257.0298,47.29593,52.1128
491759.8,216.6945,256.9697,47.29428,52.10632
491775,216.7194,256.9377,47.29756,52.10285
491793.1,216.6196,256.8029,47.28441,52.08828
491810.9,216.5154,256.7314,47.27067,52.08054
491826.7,216.4048,256.4809,47.25608,52.05342
491843.5,216.5008,256.2598,47.26874,52.02946
491860,216.1844,256.243,47.22698,52.02763
491875.8,216.0906,256.2235,47.21457,52.02552
491891.7,215.9067,256.2911,47.19025,52.03286
491908.6,215.8417,256.1846,47.18166,52.02131
491927.8,215.7334,255.9737,47.16731,51.99841
491941.2,215.593,255.9549,47.14872,51.99636
491958.7,215.3855,256.0388,47.12122,52.00548
491975.7,215.2018,256.1038,47.09684,52.01254
491991.8,215.0659,256.1646,47.07878,52.01913
492009,214.8669,256.0887,47.05233,52.01089
492028.4,214.6526,255.5071,47.02382,51.94769
492044.5,214.4512,255.2593,46.997,51.9207
492061.3,214.1712,254.9534,46.95965,51.88734
492077.4,213.9747,254.7858,46.93342,51.86905
492093.5,213.906,254.5165,46.92424,51.8396
492109.3,213.7483,254.537,46.90316,51.84185
492125.8,213.6213,254.4912,46.88617,51.83684
492142.3,213.3484,254.5545,46.84963,51.84376
492159.7,213.1787,254.5256,46.82689,51.8406
492176.1,212.9599,254.5635,46.79752,51.84475
492194.1,212.7541,254.5519,46.76988,51.84348
492210.4,212.6941,254.3838,46.76181,51.82509
492226.8,212.7377,254.2971,46.76768,51.8156
492243.9,212.8807,254.3656,46.78689,51.82309
492259.8,213.287,254.6902,46.84141,51.8586
492277.7,213.708,254.9447,46.89777,51.88639
492293.4,214.1372,255.0822,46.95511,51.90139
492309.8,214.7409,255.1849,47.03557,51.91259
492326.8,215.145,255.1616,47.08929,51.91005
492343.3,215.5167,255.3864,47.13861,51.93454
492360.4,215.8893,255.7186,47.18795,51.97069
492376.2,216.3199,255.9943,47.24486,52.00065
492391.9,216.8066,256.3853,47.30905,52.04307
492409.7,217.2846,256.6606,47.37192,52.07288
492426.1,217.8155,256.8926,47.44159,52.09797
492443.3,218.3822,257.1606,47.51575,52.12693
492460,218.9258,257.5197,47.58669,52.16567
492476.1,219.5881,257.9543,47.67286,52.21247
492496,220.3673,258.2873,47.77388,52.24825
492510.2,221.2613,258.4182,47.8893,52.2623
492527.5,221.9789,258.519,47.98157,52.27312
492543.9,222.8777,258.5969,48.09669,52.28147
492559.8,223.7418,258.7403,48.20687,52.29684
492576,225.0141,258.8091,48.36824,52.30422
492593,226.3846,258.914,48.54093,52.31545
492610.4,228.1769,259.1102,48.76501,52.33644
492627.3,229.8652,259.2567,48.97428,52.35211
492643.6,231.8553,259.3377,49.21872,52.36076
492660.2,233.9341,259.4663,49.47149,52.3745
492677.3,235.8449,259.6006,49.70156,52.38883
492695.3,238.1171,259.4983,49.97233,52.37791
492713.3,239.866,259.3943,50.17869,52.36681
492727.8,241.6805,259.3472,50.39092,52.36177
492745.4,243.399,259.2584,50.59019,52.35229
492761.1,245.0881,259.1593,50.78442,52.3417
492776.6,246.9492,259.0339,50.99657,52.32829
492793.5,249.2995,258.7062,51.26175,52.29319
492812.8,251.2606,258.3867,51.48069,52.25893
492828,253.3936,257.9175,51.71646,52.2085
492844.8,255.3885,257.5286,51.93478,52.16663
492860,257.3259,257.053,52.14477,52.11531
492876.6,259.2026,256.6167,52.34632,52.06813
492892.7,261.2385,256.268,52.56292,52.03035
492910.7,263.2825,255.9983,52.77824,52.00109
492928.2,265.0512,255.8431,52.96284,51.98423
492944.8,266.7173,255.7645,53.13533,51.97569
492961.3,268.3981,255.5204,53.30793,51.94913
492979,269.9288,255.2838,53.46392,51.92337
492995.7,271.3065,255.0688,53.60334,51.89993
493011.4,272.7598,254.8051,53.74942,51.87115
493028.5,274.3003,254.5643,53.90316,51.84483
493045.7,276.0079,254.1736,54.07228,51.80208
493062.7,277.8667,253.8517,54.25481,51.76678
493080.1,279.6346,253.5928,54.42693,51.73835
493096.3,281.3491,253.5286,54.59247,51.7313
493111.9,283.2757,253.4196,54.77692,51.71933
493130.2,284.9824,253.4694,54.93891,51.7248
493145.8,286.7743,253.5188,55.1076,51.73022
493163.2,288.0529,253.5184,55.2271,51.73019
493179.4,289.0314,253.5635,55.31807,51.73513
493196.3,290.202,253.5722,55.42635,51.7361
493214.4,291.0662,253.5477,55.50592,51.7334
493230.2,291.7688,253.5924,55.57037,51.73832
493248.2,292.3755,253.6996,55.62584,51.75009
493264.4,292.9085,253.9057,55.67447,51.77271
493280.6,293.1214,254.1078,55.69385,51.79486
493300.1,293.3242,254.4174,55.71229,51.82877
493316.4,293.5682,254.5605,55.73446,51.84443
493331.6,293.6793,254.886,55.74455,51.87998
493347.4,293.8297,255.2542,55.7582,51.92014
493364.3,293.856,255.809,55.76059,51.98052
493380.7,293.9478,256.2129,55.76891,52.02438
493396.7,294.1723,256.7014,55.78925,52.0773
493412.3,294.5565,257.4097,55.82401,52.15382
493435.1,294.9312,258.0981,55.85785,52.22792
493448.1,295.2796,258.9888,55.88927,52.32346
493465.1,295.6046,259.6866,55.91853,52.39801
493481.8,295.8318,260.3125,55.93896,52.46466
493496.1,296.1108,261.1636,55.96401,52.55499
493513.3,296.4485,262.3753,55.99429,52.68292
493530.8,296.7032,263.3906,56.01711,52.78956
493546.3,296.8952,264.7837,56.03428,52.93503
493562.8,296.8557,265.9324,56.03075,53.05424
493578.5,296.8259,267.0294,56.02808,53.16748
493594.4,297.0363,268.4765,56.04689,53.31595
493612,297.417,269.8431,56.08089,53.45522
493628.2,297.8899,271.446,56.12302,53.6174
493646.4,298.1642,272.8825,56.14743,53.76171
493662.5,298.641,274.5162,56.18977,53.92463
493679.1,299.18,276.2914,56.23751,54.10022
493695.3,299.7476,278.2116,56.28767,54.28851
493711.7,300.3271,280.6733,56.33875,54.52738
493729.8,300.8753,282.5388,56.38693,54.70657
493745.4,301.5357,284.511,56.44482,54.8943
493763,302.0686,286.0638,56.49141,55.04088
493779.2,302.4612,287.6123,56.52565,55.186
493795,302.8047,289.3409,56.55557,55.34676
493812.2,302.9816,290.9603,56.57095,55.49618
493830.6,303.2247,292.1966,56.59208,55.6095
493846.4,303.3756,293.3801,56.60518,55.71737
493863.4,303.6107,294.6376,56.62557,55.83134
493880.6,303.7788,295.9211,56.64014,55.94698
493896,304.0193,297.4379,56.66096,56.08274
493912.1,304.2595,298.9771,56.68173,56.21956
493930.8,304.4679,299.979,56.69974,56.30808
493945.8,304.6911,301.0521,56.71901,56.40244
493963.2,304.8456,301.8322,56.73233,56.47076
493978.2,304.8656,302.747,56.73405,56.55054
493994.7,304.7444,303.6467,56.7236,56.6287
494011.9,304.6113,304.4135,56.71212,56.69505
494030.9,304.3704,305.301,56.69132,56.77154
494048.8,304.2461,306.0761,56.68058,56.83811
494062.4,304.1479,306.8903,56.67208,56.90776
494077.7,303.9429,307.6588,56.65435,56.97328
494093.9,303.7929,308.2606,56.64136,57.02442
494113.6,303.7159,308.8234,56.63469,57.07212
494131.7,303.7166,309.5381,56.63475,57.13253
494148.5,303.6716,310.1603,56.63085,57.18495
494163.8,303.6047,310.6865,56.62506,57.22916
494180.5,303.4962,311.1264,56.61565,57.26605
494196.4,303.2949,311.397,56.59817,57.28871
494213.8,303.205,311.6621,56.59037,57.31087
494229.8,303.2354,311.8845,56.59301,57.32944
494246.4,303.2734,312.0663,56.59631,57.34462
494264.5,303.2596,312.2592,56.59512,57.3607
494280.6,303.2647,312.3552,56.59555,57.36869
494297.7,303.2134,312.4052,56.5911,57.37286
494312.5,303.1943,312.4979,56.58944,57.38058
494330.4,303.2215,312.418,56.5918,57.37393
494348.4,303.2083,312.4154,56.59066,57.37371
494364.3,303.1753,312.3561,56.58779,57.36877
494379.3,303.0793,312.3594,56.57944,57.36905
494395.9,303.0945,312.3524,56.58076,57.36847
494414.1,303.0649,312.367,56.5782,57.36968
494432.8,302.9353,312.4082,56.56693,57.37312
494448.8,302.8947,312.5097,56.5634,57.38157
494468.1,302.8371,312.5576,56.55839,57.38555
494482.8,302.7819,312.6486,56.55358,57.39312
494497.8,302.6865,312.636,56.54528,57.39207
494514.1,302.813,312.4918,56.55629,57.38007
494531.9,302.7769,312.4792,56.55315,57.37903
494547.5,302.778,312.5713,56.55325,57.38669
494567.1,302.8595,312.5515,56.56034,57.38504
494581.3,302.9823,312.5099,56.57102,57.38158
494597.8,303.0334,312.4441,56.57546,57.37611
494614.8,303.1243,312.3698,56.58336,57.36992
494631.3,303.2914,312.3146,56.59787,57.36532
494649.5,303.3388,312.3546,56.60199,57.36865
494667.7,303.4857,312.3849,56.61473,57.37118
494684.1,303.6757,312.5521,56.6312,57.38509
494701,303.8086,312.7786,56.64272,57.40393
494716.8,303.8437,312.8397,56.64576,57.40901
494731.7,303.9536,312.9433,56.65528,57.41763
494750.7,303.9753,312.9156,56.65715,57.41533
494766.8,304.0423,312.9774,56.66296,57.42045
494784.1,304.0836,313.0608,56.66653,57.42738
494800.3,304.1223,313.2925,56.66987,57.44661
494816.1,304.2361,313.471,56.67971,57.46141
494834,304.481,313.5212,56.70087,57.46557
494851.4,304.6251,313.5743,56.71331,57.46997
494868.7,304.9035,313.5764,56.73732,57.47014
494883.7,305.2233,313.6486,56.76486,57.47612
494900,305.6053,313.6979,56.7977,57.48021
494916.3,306.2041,313.7116,56.84907,57.48134
494933.5,307.0701,313.6751,56.92312,57.47832
494951,307.8314,313.6474,56.98796,57.47602
494966.4,308.6571,313.5957,57.05804,57.47174
494982.8,309.7518,313.5453,57.15055,57.46757
494999.3,310.9677,313.5026,57.25276,57.46402
495017.9,312.3894,313.61,57.37155,57.47293
495035,313.8861,313.7799,57.49578,57.48699
495049.9,315.5093,313.9339,57.62957,57.49973
495066.4,317.405,314.1831,57.78457,57.52033
495083.6,319.0726,314.352,57.91983,57.53428
495100.8,320.6679,314.2467,58.04829,57.52559
495118,322.1089,313.9582,58.16352,57.50174
495133.1,323.7593,313.6145,58.29459,57.4733
495151.6,325.3114,313.3381,58.41699,57.45039
495167.5,326.6472,313.0846,58.52164,57.42936
495183.4,328.0813,312.9391,58.6333,57.41727
495200.9,329.3834,312.8911,58.73408,57.41328
495216.9,330.2812,312.6873,58.80323,57.39634
495232.6,331.3129,312.5578,58.88234,57.38557
495249.3,332.0728,312.136,58.94038,57.35043
495266.1,332.7821,311.8366,58.99439,57.32545
495284.2,333.02,311.4288,59.01247,57.29137
495299.7,333.2151,311.1802,59.02728,57.27057
495316.1,333.3435,311.1395,59.03701,57.26715
495335.1,333.4253,310.945,59.04321,57.25085
495351.4,333.6132,310.7169,59.05745,57.23172
495366.2,333.8825,310.5707,59.07784,57.21944
495383.2,334.1356,310.5201,59.09698,57.21519
495399.3,334.4041,310.3914,59.11725,57.20439
495415.2,334.6313,310.3073,59.13439,57.19732
495433,334.8196,310.0376,59.14858,57.17463
495448.9,334.9338,309.9119,59.15718,57.16404
495466.2,335.0313,309.765,59.16452,57.15166
495483.2,334.9751,309.544,59.16029,57.13303
495500.3,334.8312,309.1974,59.14946,57.10376
495515.6,334.684,308.7342,59.13837,57.06458
495533,334.5616,308.257,59.12914,57.02412
495549.8,334.4928,307.5986,59.12395,56.96815
495565.9,334.4842,306.9485,59.12329,56.91273
495584.3,334.6039,306.4757,59.13232,56.87233
495600.6,334.7033,305.7878,59.13982,56.81337
495618.8,334.9096,305.2087,59.15536,56.76361
495634.6,335.2114,304.5956,59.17807,56.71076
495651,335.5886,303.7069,59.20642,56.63391
495668.1,336.0689,302.9805,59.24245,56.57086
495685.1,336.7413,302.1076,59.29275,56.49481
495701.7,337.6382,301.2326,59.35962,56.41827
495719.1,338.455,300.4203,59.42029,56.34695
495734,339.3287,299.248,59.48494,56.24353
495751.1,340.0832,298.1453,59.54058,56.14574
495768.9,340.7763,296.5143,59.59153,56.00019
495786.6,341.3425,294.8001,59.63303,55.84602
495802.3,341.8599,293.0587,59.67087,55.68814
495818.3,342.4082,291.4082,59.71088,55.53731
495834.4,342.8152,290.2126,59.74051,55.42733
495852.8,343.1802,289.3736,59.76704,55.34978
495870.5,343.5567,288.8275,59.79436,55.29915
495886.2,344.1995,288.1265,59.84091,55.23395
495902.6,344.98,287.5324,59.89726,55.17854
495918.4,345.691,287.0057,59.94841,55.12928
495935.3,346.4211,286.3347,60.00079,55.06635
495951.9,347.0017,285.6247,60.04231,54.99953
495969.1,347.4052,284.9258,60.07111,54.93355
495987.5,347.5185,284.1895,60.07919,54.86381
496003.3,347.717,283.3512,60.09333,54.78411
496018.4,347.7963,282.3849,60.09898,54.69185
496034.7,347.7506,281.114,60.09572,54.56986
496051.4,347.7402,280.1516,60.09498,54.47699
496068.6,347.5833,279,60.08381,54.36531
496086.2,347.3305,277.717,60.06578,54.24017
496101.4,347.2694,276.601,60.06143,54.13069
496118.3,347.3325,275.8198,60.06593,54.05371
496135.6,347.3691,274.8697,60.06853,53.95971
496151.3,347.2195,273.6997,60.05787,53.84336
496168.3,346.9921,272.5622,60.04163,53.72962
496185.1,346.7086,271.813,60.02136,53.65437
496202,346.4594,270.9993,60.00352,53.57233
496218.1,346.1157,270.1042,59.97889,53.48172
496234.5,345.7025,268.6983,59.94924,53.33861
496251.5,345.4028,267.6609,59.92769,53.2324
496267.6,345.1994,267.131,59.91306,53.17794
496285.8,345.0676,266.6549,59.90357,53.12889
496302.3,345.0859,266.1608,59.90488,53.07787
496321.4,345.2021,265.6634,59.91325,53.02639
496335.9,345.3989,265.4809,59.92741,53.00746
496351.3,345.6487,265.4954,59.94537,53.00897
496370.2,345.7446,265.2116,59.95226,52.97952
496387.3,345.3858,264.481,59.92647,52.90351
496406,344.8546,263.7747,59.88821,52.82976
496421.5,344.0307,263.1596,59.8287,52.76535
496442.6,343.3626,262.8706,59.78029,52.73502
496457,342.75,262.5166,59.73577,52.6978
496471.6,342.0237,262.0932,59.68284,52.6532
496486.7,341.1375,261.6168,59.61802,52.60292
496502.9,340.2066,261.1255,59.54966,52.55095
496519.9,338.943,260.2505,59.45643,52.45808
496536.2,337.6451,259.4818,59.36013,52.37615
496553.8,336.3248,259.1296,59.2616,52.33852
496570.3,334.7164,259.0517,59.14081,52.33018
496587.4,333.1371,259.2014,59.02135,52.34619
496605,331.5819,259.2626,58.90291,52.35274
496620.3,329.9449,258.9615,58.77735,52.32053
496636.9,328.4728,258.7379,58.66367,52.29658
496654.3,327.158,258.638,58.5615,52.28588
496674.9,325.9363,258.457,58.46602,52.26646
496694.3,325.3168,258.3075,58.41741,52.25042
496707.6,324.8396,258.2377,58.37987,52.24292
496721.8,324.2785,258.2592,58.33563,52.24524
496735.9,323.5379,258.2432,58.27707,52.24352
496753.4,322.8801,257.8661,58.2249,52.20298
496770.7,322.2438,257.4927,58.17427,52.16277
496786.8,321.4438,257.206,58.11043,52.13184
496804.8,320.679,257.032,58.04917,52.11304
496823.7,320.1237,257.1389,58.00457,52.12458
496839.2,319.5441,256.9491,57.95789,52.10408
496855.7,318.4171,256.0404,57.86678,52.00566
496872.5,317.2325,255.2267,57.77052,51.91714
496888.9,315.9422,254.3989,57.66508,51.82674
496906.4,314.4665,253.6082,57.54373,51.74005
496922.4,313.0801,252.9334,57.42898,51.66581
496937.1,311.6175,252.1579,57.30714,51.58018
496953.3,310.3056,251.501,57.19717,51.50739
496969.7,309.2012,250.9642,57.10408,51.44773
496986.3,308.2027,250.4574,57.01951,51.39127
497002.7,307.018,249.9617,56.91867,51.3359
497023.1,306.0811,249.6814,56.83854,51.30455
497039.1,305.2412,249.4544,56.7664,51.27912
497055.3,304.4764,249.3355,56.70048,51.26579
497072.2,303.8447,249.2276,56.64585,51.25368
497086.3,303.2059,249.0094,56.59045,51.22918
497104,302.6622,249.007,56.54316,51.22891
497121.4,302.2125,248.8494,56.50397,51.21119
497137.3,301.6891,248.6914,56.45824,51.19343
497156.1,301.1928,248.5785,56.41479,51.18072
497173,300.8058,248.6011,56.38083,51.18326
497187,300.4573,248.4548,56.3502,51.1668
497205.7,300.1686,248.2798,56.32479,51.14708
497222.4,299.7725,247.9334,56.28987,51.10799
