Time Stamp(ms),Intersection,,Angle,
,x,y,x,y
670010,317.9348,244.3885,57.82765,50.70417
670025.8,318.4741,244.1665,57.8714,50.67865
670046.9,318.6881,243.984,57.88874,50.65764
670059.1,319.0247,243.799,57.91596,50.63633
670075,319.4228,243.6348,57.94811,50.6174
670100.3,319.8893,243.4756,57.98571,50.59903
670124.6,320.412,243.1223,58.02774,50.55822
670143.9,320.7688,242.9473,58.05638,50.53798
670160.8,321.0004,242.8046,58.07494,50.52146
670177.1,321.1757,242.6487,58.08898,50.50339
670189.9,321.4001,242.5841,58.10693,50.49591
670202.4,321.6497,242.4655,58.12688,50.48216
670216.6,321.8531,242.3362,58.14312,50.46715
670229.1,322.0252,242.3298,58.15685,50.46641
670241.8,322.21,242.2327,58.17158,50.45514
670259,322.3715,242.1179,58.18444,50.4418
670274.8,322.6789,241.998,58.2089,50.42786
670291.9,322.6371,242.0233,58.20558,50.43081
670308.3,322.8171,241.9448,58.21988,50.42167
670325.1,322.9915,242.0101,58.23374,50.42928
670342.3,323.4262,242.1396,58.26822,50.44432
670359.3,323.5585,242.6321,58.2787,50.50147
670374.7,323.9104,242.6627,58.30655,50.50502
670392.4,324.2657,243.0529,58.33463,50.55019
670410.9,324.6356,243.4238,58.3638,50.59306
670426.6,324.9547,243.821,58.38893,50.63886
670445.6,325.1924,244.1508,58.40763,50.67683
670458.8,325.4083,244.1978,58.4246,50.68224
670474.8,325.6414,244.5125,58.4429,50.71841
670492.8,325.8952,244.9637,58.4628,50.77017
670511.1,326.0986,245.6571,58.47873,50.84948
670528.9,326.1791,246.2919,58.48504,50.92186
670544.7,326.2063,247.1977,58.48717,51.02475
670559.8,326.377,247.9341,58.50052,51.10806
670576.1,326.5649,248.6974,58.51521,51.1941
670593.6,326.7675,249.8927,58.53103,51.3282
670609.9,326.9249,250.9891,58.54332,51.4505
670626.9,326.95,252.1131,58.54528,51.57521
670644.3,326.7689,253.0028,58.53115,51.67345
670663.1,326.5713,253.9222,58.51571,51.77452
670679.8,326.3788,255.09,58.50066,51.90224
670694.6,325.9833,256.4279,58.4697,52.04768
670711.2,325.1166,257.489,58.40167,52.16236
670728.2,323.8821,257.9989,58.30431,52.21726
670744.3,322.9643,258.3467,58.23158,52.25463
670759.9,322.0014,258.7517,58.15495,52.29806
670775.8,321.2737,259.0983,58.09682,52.33517
670793,320.6744,259.6459,58.04881,52.39367
670814.3,320.1991,260.0146,58.01063,52.43297
670828.7,319.8286,260.5102,57.98082,52.48568
670843.6,319.5536,261.2204,57.95866,52.561
670859.8,319.5333,262.1509,57.95702,52.65929
670877.2,319.3633,262.9997,57.94331,52.74857
670894.9,318.7763,263.7214,57.89587,52.82419
670911.5,317.9749,264.5863,57.83091,52.91447
670927.6,317.2985,265.5283,57.77589,53.01237
670943.4,316.401,266.9426,57.70264,53.15854
670960.2,315.6315,268.1621,57.6396,53.28378
670976.6,314.9159,269.4051,57.58077,53.41068
670993.5,314.0876,270.4836,57.51244,53.52017
671010.8,312.9289,271.5929,57.41642,53.63221
671027.7,311.4811,272.4904,57.29575,53.72241
671045.6,310.0713,273.6096,57.17746,53.83438
671067.8,308.6417,274.9,57.05674,53.96271
671078.6,307.428,276.2159,56.95363,54.09278
671095,306.0417,277.7433,56.83515,54.24274
671112.8,304.7106,278.9531,56.72068,54.36074
671128.2,303.3688,279.971,56.60459,54.45951
671144.5,301.8909,281.0582,56.47589,54.56448
671163.8,300.363,281.6768,56.3419,54.62396
671177.4,298.761,282.4579,56.20041,54.69883
671194,297.1736,283.0068,56.05916,54.75127
671211.1,295.4515,283.5844,55.90475,54.80632
671228.6,293.7147,284.1819,55.74776,54.86309
671245.6,292.0737,284.6967,55.59827,54.91189
671261.1,290.2876,285.4296,55.43425,54.98114
671280.6,288.7869,286.0906,55.29538,55.0434
671295.4,287.4016,286.6527,55.16631,55.09619
671314.1,286.1696,287.0562,55.05083,55.13401
671329.5,285.0441,287.2987,54.94474,55.1567
671347.1,283.96,287.4977,54.84202,55.1753
671361.8,282.7556,287.7596,54.72729,55.19975
671380.4,281.7036,288.0953,54.62654,55.23105
671398.4,280.7494,288.4628,54.53472,55.26526
671416.1,279.7674,288.6792,54.4398,55.28537
671432.9,278.8866,288.829,54.35428,55.29929
671448.1,277.91,288.8824,54.25904,55.30424
671464,276.7048,288.7894,54.1409,55.29561
671480.6,275.5191,288.6805,54.02401,55.2855
671496.9,274.227,288.4771,53.89588,55.26659
671514.3,272.9564,288.2804,53.7691,55.24829
671531.9,271.694,287.9588,53.64239,55.21833
671548.3,269.5362,287.3723,53.42402,55.16358
671563.8,267.127,286.9453,53.17752,55.12362
671581.1,264.7614,286.6186,52.9327,55.09299
671597.7,262.2601,286.4319,52.6708,55.07547
671613.5,259.681,286.3773,52.39741,55.07035
671630.9,257.1059,286.3936,52.12103,55.07187
671647.9,254.6575,286.6284,51.85503,55.09392
671665.9,252.2189,287.0877,51.58691,55.13696
671682.7,250.1564,287.5676,51.35767,55.18182
671698,248.3361,288.0094,51.15342,55.22305
671714.7,246.5461,288.3508,50.95079,55.25484
671731.1,245.1195,288.6175,50.78801,55.27964
671747.8,243.8744,288.6769,50.64502,55.28516
671764.4,242.7646,288.7412,50.51683,55.29114
671780.4,241.7333,288.6906,50.39707,55.28644
671797.9,240.9024,288.4845,50.30015,55.26728
671813.9,240.1084,288.1566,50.20715,55.23676
671833.1,239.687,287.8955,50.15765,55.21243
671848.8,239.3878,287.5815,50.12244,55.18312
671863.7,239.0409,287.2237,50.08156,55.14968
671879.6,238.5462,286.909,50.02313,55.12022
671895.8,238.0516,286.6123,49.96457,55.0924
671913.9,237.7037,286.2798,49.9233,55.06118
671932.5,237.3536,285.9805,49.88169,55.03304
671948.1,237.0011,285.0812,49.83973,54.94825
671965.2,236.5824,283.9783,49.78978,54.84376
671982.5,236.5256,282.8964,49.78299,54.74073
671998.8,236.5741,282.1258,49.78879,54.66703
672014.3,236.4522,281.2288,49.77423,54.58091
672031.6,236.0605,280.4027,49.72738,54.50126
672049,235.5158,279.8232,49.66209,54.4452
672063.9,235.017,279.1767,49.60214,54.38248
672079.1,234.6266,278.2238,49.55512,54.2897
672095.4,234.2777,277.4258,49.51302,54.21165
672113.6,234.2671,276.8438,49.51174,54.15456
672129.1,234.4621,276.3672,49.53527,54.10769
672146.4,234.6811,275.8361,49.56169,54.05532
672164.1,235.0681,275.4882,49.60828,54.02095
672179.9,235.6335,275.5152,49.67621,54.02362
672198.3,236.3026,275.7686,49.75635,54.04866
672215.3,237.0083,276.2911,49.84058,54.10019
672230.1,237.7255,276.8178,49.92588,54.152
672246.1,238.4279,277.1259,50.00914,54.18226
672262.8,239.0602,276.932,50.08383,54.16322
672279.1,239.5266,276.6626,50.13878,54.13675
672295.9,239.8888,276.0355,50.18137,54.075
672328.4,240.0505,274.9908,50.20036,53.97171
672341.5,240.1115,274.3755,50.20752,53.91065
672352.6,240.0896,273.4701,50.20494,53.82045
672365.9,240.1507,272.1946,50.21211,53.69273
672381.9,240.2826,271.0209,50.22758,53.57452
672399.2,240.3542,269.8335,50.23598,53.45424
672415.3,240.3873,268.5252,50.23986,53.32093
672432.8,240.5473,266.9348,50.25861,53.15774
672448.9,240.6837,265.2663,50.27457,52.98519
672465.1,240.9768,263.2681,50.30885,52.77672
672482,241.347,261.0092,50.35206,52.53862
672498.4,241.6119,258.7413,50.38293,52.29696
672515.1,241.7058,255.9081,50.39387,51.99129
672529.3,241.8019,252.7935,50.40506,51.65038
672551.1,242.1192,250.1048,50.44195,51.3519
672563.9,243.3516,247.0041,50.58471,51.0028
672584.4,244.4498,244.5586,50.71121,50.7237
672599.8,245.5177,242.3649,50.83356,50.47049
672614.7,246.8151,240.0532,50.98134,50.20068
672634.2,247.6396,238.2459,51.07478,49.98759
672648.8,248.5486,236.5736,51.17736,49.78873
672665.8,249.36,235.1775,51.26853,49.62145
672682.5,250.1266,234.1382,51.35434,49.49617
672698.4,250.9459,233.4172,51.44569,49.40887
672715.6,251.728,232.7578,51.53257,49.32878
672732.1,252.6089,232.307,51.63001,49.27386
672750.5,253.4797,231.9831,51.72593,49.23433
672766.4,254.5888,231.7585,51.84752,49.20687
672782.6,255.9538,231.1402,51.99625,49.13115
672802.8,257.0819,230.2989,52.11843,49.02775
672814.4,258.2516,229.5595,52.24442,48.93652
672830.9,259.6431,228.4377,52.39337,48.79745
672850.7,260.8588,227.0403,52.52267,48.62315
672864.6,262.2898,225.308,52.67392,48.40537
672883.4,263.9196,223.9038,52.84492,48.22748
672899.1,265.6185,222.6238,53.02173,48.06422
672915.5,267.5121,221.1286,53.21712,47.8722
672935.6,269.2322,219.6625,53.39307,47.68253
672951.1,271.0688,218.0441,53.57935,47.47153
672967.4,272.6802,216.6921,53.74144,47.29396
672982.8,274.1584,215.4683,53.88905,47.1322
673000.1,275.6268,214.4768,54.03466,47.00041
673016.3,277.0186,213.4054,54.17172,46.85727
673032.7,278.5239,212.0871,54.31896,46.68009
673050.8,280.0481,211.0986,54.46698,46.54646
673067.4,281.6833,210.149,54.6246,46.41748
673084.6,283.5771,209.2841,54.80561,46.29946
673100.1,285.6919,208.7518,55.00587,46.22658
673117.4,287.9502,208.4312,55.21753,46.18258
673133.4,290.4102,207.9705,55.44555,46.11924
673151.9,292.7869,207.7882,55.66338,46.09414
673168.3,295.7286,207.7017,55.92968,46.08221
673185.2,298.9096,207.5444,56.21357,46.06052
673201.9,302.6397,207.6573,56.54121,46.07609
673217.4,307.2751,207.7867,56.9406,46.09393
673233.8,311.9636,207.6787,57.33605,46.07905
673252.8,316.7338,207.4279,57.72984,46.04446
673268.6,320.924,207.2331,58.06882,46.01756
673285.6,325.1983,207.3154,58.4081,46.02892
673302.6,329.5478,207.3022,58.74676,46.02711
673319.1,333.3715,207.1159,59.03913,46.00137
673336.5,337.4318,206.9077,59.34425,45.97257
673354.5,341.0573,206.9584,59.61214,45.97958
673370.3,344.6688,207.0531,59.87481,45.99267
673387.1,348.4054,207.2633,60.14228,46.02173
673404,351.8373,207.0451,60.38417,45.99157
673419.8,354.7369,206.919,60.58578,45.97413
673435.3,357.9327,206.8081,60.8051,45.95877
673453.8,360.5559,206.7719,60.98291,45.95377
673469.9,363.4195,206.8173,61.17477,45.96005
673487.1,366.3535,206.7731,61.36896,45.95394
673504,369.21,206.696,61.55572,45.94326
673520.2,371.6053,206.9019,61.71062,45.97176
673536,374.0511,207.0913,61.8672,45.99796
673551.8,376.9235,207.3006,62.04906,46.02687
673569.7,379.312,207.346,62.19865,46.03315
673586.3,381.5454,207.3603,62.33719,46.03512
673602.2,383.3528,207.5215,62.44838,46.05737
673618.4,384.9682,207.7107,62.54707,46.08346
673635.6,386.3696,207.9689,62.63215,46.11902
673651.9,387.4182,208.4166,62.6955,46.18058
673668.1,388.5879,208.7444,62.76584,46.22556
673686.1,389.655,209.2664,62.82973,46.29705
673701.9,390.6679,209.7273,62.89011,46.36
673718.8,391.5374,210.1753,62.94174,46.42106
673734.3,392.561,210.4996,63.0023,46.46518
673751.1,393.6263,210.9422,63.06506,46.52526
673770.4,394.4363,211.2686,63.11259,46.5695
673784.7,395.4908,211.4692,63.17424,46.59664
673803.2,396.3605,211.65,63.22489,46.62109
673822.1,396.9948,211.868,63.26172,46.65053
673838.6,397.5628,212.0999,63.29462,46.68181
673855.1,398.1295,212.3635,63.32738,46.71733
673872.3,398.5666,212.446,63.35258,46.72844
673888.9,398.9083,212.5074,63.37226,46.7367
673905.8,399.0632,212.6377,63.38117,46.75423
673923.8,399.1722,212.6581,63.38744,46.75697
673940.3,399.2234,212.7322,63.39038,46.76694
673953.1,399.2269,212.9078,63.39058,46.79052
673968.1,399.2048,213.1791,63.38932,46.82693
673985.8,399.1455,213.3845,63.38591,46.85447
674002.9,398.9204,213.6738,63.37296,46.8932
674020,398.7448,213.8057,63.36285,46.91083
674035.5,398.5358,214.0396,63.35081,46.94209
674054.1,398.344,214.1994,63.33975,46.96342
674069.1,398.1025,214.3419,63.32582,46.98243
674085.7,397.8079,214.4254,63.3088,46.99356
674103.5,397.6154,214.5329,63.29766,47.00787
674120.4,397.3706,214.6536,63.2835,47.02396
674136.4,397.2334,214.8266,63.27555,47.04697
674151.9,397.0831,214.9237,63.26684,47.05989
674169,397.084,214.9074,63.2669,47.05772
674186.9,397.1234,214.9834,63.26918,47.06782
674202.5,397.2194,214.9607,63.27474,47.06481
674219.6,397.3549,214.9763,63.28259,47.06688
674235.6,397.6096,215.0628,63.29733,47.07837
674254,397.9597,214.9242,63.31757,47.05995
674271.4,398.255,214.8642,63.33462,47.05198
674290.6,398.5311,214.5754,63.35054,47.01354
674306.8,398.769,214.5562,63.36424,47.01099
674321.8,398.9985,214.6263,63.37745,47.02031
674338.5,399.2461,214.7038,63.39169,47.03063
674354.9,399.404,214.6505,63.40076,47.02355
674371.3,399.4798,214.5292,63.40511,47.00739
674387.2,399.5688,214.4994,63.41022,47.00342
674404.1,399.5661,214.5876,63.41006,47.01516
674420.8,399.5869,214.5878,63.41126,47.01519
674438.7,399.5547,214.4952,63.40941,47.00286
674454.8,399.5908,214.2386,63.41148,46.96865
674471.1,399.65,214.1466,63.41488,46.95637
674490.2,399.7263,214.0845,63.41925,46.94809
674506.1,399.8118,214.0847,63.42416,46.94811
674521.9,399.9123,214.1155,63.42992,46.95222
674537.5,399.9761,214.0464,63.43358,46.943
674556.8,400.035,213.9465,63.43695,46.92965
674572.5,400.1523,213.9103,63.44367,46.92482
674589.8,400.2942,213.9182,63.45179,46.92587
674605.3,400.4088,214.034,63.45835,46.94134
674621.1,400.4564,214.0259,63.46107,46.94025
674639.6,400.4622,214.0329,63.4614,46.94119
674655.9,400.4556,213.9525,63.46103,46.93046
674674.1,400.4266,213.8558,63.45937,46.91753
674690.9,400.4023,213.7654,63.45798,46.90545
674707.3,400.3929,213.7368,63.45744,46.90163
674723,400.3771,213.7726,63.45654,46.90641
674741.4,400.3922,213.762,63.4574,46.90499
674758.9,400.4203,213.753,63.45901,46.90379
674773.4,400.4297,213.8902,63.45955,46.92212
674790.7,400.4995,213.8248,63.46354,46.91339
674806.1,400.5441,213.8441,63.46609,46.91598
674824.4,400.6459,213.9021,63.47191,46.92372
674841,400.7575,214.0499,63.47828,46.94347
674858.1,400.8327,213.9904,63.48258,46.93552
674873.6,401.0097,214,63.49268,46.93681
674891.7,401.136,213.9354,63.49989,46.92818
674908.3,401.2165,213.9889,63.50448,46.93532
674924.1,401.352,214.0793,63.5122,46.94739
674941.3,401.5092,214.2796,63.52116,46.97411
674957.8,401.7036,214.3245,63.53223,46.98011
674974.3,401.7771,214.4331,63.53641,46.99458
674991.2,401.8167,214.5223,63.53866,47.00647
675007.9,401.8514,214.6841,63.54063,47.02802
675024.6,401.9121,214.8388,63.54409,47.0486
675041.8,401.9671,214.9065,63.54721,47.0576
675059.4,402.0414,214.8858,63.55144,47.05486
675076.2,402.0994,214.9438,63.55473,47.06256
675096.8,402.1443,214.9539,63.55728,47.06391
675112.1,402.2106,215.0885,63.56105,47.08179
675126.3,402.2727,215.1034,63.56458,47.08377
675141.8,402.3967,215.0774,63.57161,47.08031
675157.7,402.5081,215.1328,63.57793,47.08768
675173.8,402.6191,215.1242,63.58423,47.08653
675192.1,402.7145,215.325,63.58964,47.11319
675207.7,402.8999,215.4746,63.60014,47.13303
675225.3,402.9767,215.6126,63.60449,47.15132
675241.1,403.0901,215.7865,63.61091,47.17435
675257.7,403.1674,215.7889,63.61528,47.17467
675274,403.1971,215.9377,63.61696,47.19435
675291.6,403.1814,216.0087,63.61608,47.20375
675308.1,403.1271,216.0911,63.613,47.21465
675325.9,403.058,216.152,63.60909,47.22269
675343.4,402.9766,216.2239,63.60448,47.23219
675357.8,402.8791,216.2557,63.59896,47.23639
675373.2,402.7657,216.3183,63.59254,47.24466
675393.3,402.6607,216.3668,63.58659,47.25106
675409,402.5898,216.4396,63.58257,47.26067
675425.3,402.5365,216.4271,63.57954,47.25901
675442,402.5109,216.5184,63.57809,47.27106
675458.8,402.4861,216.4955,63.57669,47.26805
675476.9,402.5057,216.4658,63.5778,47.26412
675493.4,402.5845,216.4288,63.58227,47.25924
675511.4,402.6355,216.3423,63.58516,47.24782
675526.2,402.7309,216.2676,63.59057,47.23796
675543.2,402.8145,216.1735,63.5953,47.22554
675558.9,402.8873,216.152,63.59943,47.22269
675574.6,403.0074,216.3721,63.60623,47.25176
675594.1,403.1039,216.4359,63.61169,47.26019
675610.2,403.1869,216.5274,63.61639,47.27225
675625.8,403.2334,216.592,63.61902,47.28077
675644.6,403.3056,216.5729,63.6231,47.27825
675661.3,403.3604,216.5925,63.6262,47.28083
675676.5,403.4052,216.602,63.62873,47.28208
675692.9,403.4415,216.4545,63.63079,47.26263
675711.2,403.4435,216.4097,63.63089,47.25672
675728.1,403.481,216.2785,63.63302,47.2394
675741.8,403.4936,216.1708,63.63373,47.22518
675758.6,403.5096,216.0449,63.63463,47.20853
675774.6,403.4677,215.9444,63.63226,47.19525
675792.5,403.446,215.9466,63.63103,47.19554
675809.1,403.4384,215.8008,63.63061,47.17624
675826.1,403.4074,215.8446,63.62886,47.18204
675847.1,403.4377,215.8218,63.63057,47.17902
675863.2,403.4966,215.8146,63.6339,47.17807
675877.8,403.4807,215.8262,63.633,47.17961
675892.8,403.5191,215.761,63.63517,47.17097
675909.4,403.5403,215.7177,63.63637,47.16525
675927.4,403.5201,215.6751,63.63523,47.1596
675944,403.5335,215.5924,63.63598,47.14864
675958.8,403.5378,215.5508,63.63622,47.14313
675975.1,403.5647,215.5391,63.63774,47.14158
675993.3,403.6219,215.5663,63.64098,47.14518
676010.8,403.6718,215.5304,63.6438,47.14043
676027.6,403.7484,215.422,63.64812,47.12605
676042.1,403.7899,215.3361,63.65046,47.11466
676060.2,403.829,215.2953,63.65267,47.10925
676077.8,403.8517,215.2759,63.65395,47.10667
676093.3,403.8944,215.3186,63.65636,47.11233
676110.8,403.9154,215.3922,63.65754,47.1221
676127.9,403.9587,215.3828,63.65998,47.12085
676145.9,403.932,215.2977,63.65848,47.10957
676159.6,403.9616,215.2385,63.66015,47.1017
676175.8,403.9336,215.0924,63.65857,47.08231
676194.6,403.9155,214.9816,63.65754,47.06759
676210.9,403.9066,214.8554,63.65704,47.05081
676226.3,403.931,214.8773,63.65842,47.05372
676243.3,404.0608,214.874,63.66574,47.05328
676260.1,404.1606,214.9113,63.67136,47.05824
676276.3,404.2444,214.8704,63.67609,47.05281
676293.2,404.2722,214.8546,63.67765,47.0507
676311.8,404.3586,214.8234,63.68252,47.04655
676328.8,404.4261,214.8059,63.68632,47.04423
676351,404.4686,214.7332,63.68871,47.03455
676366.2,404.489,214.6628,63.68986,47.02518
676377.9,404.4787,214.6,63.68928,47.01682
676396.6,404.4917,214.4961,63.69001,47.00298
676412.6,404.4829,214.3149,63.68952,46.97883
676431.6,404.4625,214.2019,63.68837,46.96375
676448.6,404.4954,214.0593,63.69022,46.94472
676461.4,404.466,213.9882,63.68857,46.93522
676478.3,404.4907,213.7981,63.68995,46.90982
676495.3,404.4937,213.7989,63.69012,46.90992
676511.9,404.5525,213.7728,63.69343,46.90644
676529.4,404.6324,213.8696,63.69793,46.91938
676546,404.6378,213.8931,63.69823,46.92251
676563.5,404.6808,213.9482,63.70065,46.92987
676579.3,404.7022,213.9233,63.70185,46.92656
676595.9,404.7281,213.9328,63.70331,46.92783
676614.2,404.7318,213.9644,63.70351,46.93204
676631.3,404.7279,214.0497,63.7033,46.94344
676649.9,404.8059,214.0664,63.70768,46.94567
676663.6,404.911,214.1402,63.71359,46.95552
676679.6,404.9108,214.1286,63.71358,46.95398
676696,404.9795,214.0434,63.71743,46.9426
676713.3,405.0368,213.9756,63.72066,46.93354
676731.1,405.0787,213.8829,63.72301,46.92116
676747.3,405.035,213.9218,63.72056,46.92636
676763.5,404.9837,213.8734,63.71767,46.91988
676779.4,404.902,213.7904,63.71309,46.90879
676796.3,404.7908,213.6606,63.70683,46.89143
676815.1,404.6157,213.476,63.69699,46.86672
676831.5,404.4835,213.2984,63.68955,46.84293
676847.1,404.315,213.0695,63.68007,46.81223
676864.8,404.1681,212.8287,63.67179,46.7799
676880.5,403.9389,212.6495,63.65887,46.75582
676896.2,403.7936,212.3468,63.65067,46.71509
676911.6,403.5471,212.1754,63.63675,46.69199
676928.9,403.345,212.0979,63.62533,46.68155
676945.8,403.1119,212.0364,63.61214,46.67325
676963.6,402.8837,212.0427,63.59922,46.6741
676979,402.6477,211.9649,63.58585,46.6636
676995,402.4023,211.9205,63.57193,46.6576
677013.3,402.2667,211.9276,63.56423,46.65857
677030.1,402.1368,211.8719,63.55685,46.65105
677047.3,402.0095,211.8452,63.54962,46.64745
677062.9,401.9626,211.6853,63.54696,46.62585
677079.6,401.9604,211.5989,63.54683,46.61417
677095.3,401.9579,211.5786,63.54669,46.61143
677112.9,401.9886,211.4983,63.54844,46.60058
677129,401.9968,211.4918,63.5489,46.59969
677145.8,401.9489,211.435,63.54618,46.59201
677163.3,401.8742,211.3361,63.54193,46.57863
677179.7,401.7649,211.271,63.53571,46.56982
677194.6,401.6497,211.3291,63.52916,46.57768
677213.7,401.6019,211.4647,63.52644,46.59603
677229.1,401.4277,211.6739,63.51652,46.62431
677248.1,401.236,211.8612,63.50559,46.6496
677266.4,401.0451,212.0727,63.49471,46.67814
677281,400.8423,212.0458,63.48313,46.67451
677296,400.6468,212.0857,63.47196,46.6799
677312.3,400.5007,212.0943,63.46361,46.68105
677329.2,400.2595,212.1552,63.44981,46.68927
677346.6,400.0654,212.2337,63.4387,46.69984
677363.8,399.8348,212.3387,63.42548,46.714
677378.9,399.881,212.184,63.42813,46.69315
677395.5,399.7638,212.0944,63.42141,46.68107
677414.1,399.7074,212.0346,63.41817,46.673
677430.4,399.6789,211.9556,63.41654,46.66235
677447.8,399.6552,211.9948,63.41518,46.66764
677464.9,399.6026,212.1048,63.41216,46.68248
677483.9,399.6473,212.152,63.41473,46.68884
677498.3,399.6752,212.2214,63.41633,46.69819
