Time Stamp(ms),Intersection,,Angle,
,x,y,x,y
1078071,318.2312,245.5751,57.85171,50.84012
1078086,318.3133,245.7543,57.85837,50.86058
1078102,318.326,246.046,57.8594,50.89385
1078119,318.2961,246.2545,57.85698,50.91761
1078135,318.2796,246.4448,57.85563,50.93926
1078152,318.3388,246.7126,57.86044,50.9697
1078170,318.4171,246.9648,57.86678,50.99834
1078186,318.4826,247.1182,57.87209,51.01574
1078203,318.5027,247.3024,57.87372,51.03661
1078220,318.5687,247.4542,57.87907,51.0538
1078236,318.6093,247.6458,57.88235,51.07549
1078253,318.6232,247.8188,57.88348,51.09504
1078269,318.6776,247.9888,57.88789,51.11424
1078287,318.7016,248.1722,57.88982,51.13493
1078303,318.7872,248.3043,57.89676,51.14983
1078321,318.835,248.4703,57.90062,51.16854
1078336,318.9148,248.6524,57.90708,51.18904
1078352,318.9136,248.8743,57.90697,51.21399
1078370,318.9378,248.9853,57.90894,51.22647
1078385,318.9321,249.1185,57.90848,51.24144
1078401,318.8318,249.3081,57.90037,51.2627
1078420,318.7467,249.4731,57.89348,51.28121
1078437,318.6169,249.8048,57.88297,51.31836
1078456,318.4722,250.1387,57.87125,51.35569
1078468,318.3097,250.3638,57.85808,51.38083
1078485,318.0305,250.6148,57.83542,51.40882
1078504,317.6776,250.8943,57.80676,51.43996
1078520,317.1852,251.2653,57.76666,51.48122
1078536,316.6142,251.5552,57.72007,51.5134
1078552,315.888,251.8738,57.66064,51.54872
1078568,315.4828,252.0408,57.62739,51.56721
1078585,314.7883,252.1898,57.57026,51.58371
1078602,314.2322,252.3868,57.52439,51.60549
1078619,313.926,252.5657,57.49908,51.62524
1078637,313.7495,252.8655,57.48448,51.65832
1078654,313.5886,253.1911,57.47115,51.69419
1078670,313.5323,253.448,57.46648,51.72245
1078688,313.555,253.6351,57.46837,51.74301
1078704,313.511,253.8913,57.46472,51.77113
1078719,313.4596,254.2738,57.46046,51.81305
1078735,313.4349,254.7001,57.45842,51.85967
1078752,313.0685,255.3061,57.42802,51.9258
1078769,312.877,255.8234,57.41211,51.98208
1078785,312.6885,256.4311,57.39645,52.04803
1078802,312.4516,257.1144,57.37673,52.12195
1078818,312.1142,257.8706,57.34861,52.20346
1078835,311.555,259.0029,57.30192,52.32496
1078852,310.916,259.9258,57.24842,52.4235
1078868,310.2224,260.9935,57.19017,52.53696
1078885,309.0521,262.0648,57.09148,52.65022
1078903,308.161,262.9406,57.01597,52.74236
1078920,307.0767,263.7998,56.92368,52.83239
1078935,305.2734,265.1499,56.76917,52.97311
1078954,303.2415,266.63,56.59354,53.12632
1078970,301.7825,267.8728,56.46641,53.25414
1078986,300.82,269.2803,56.38208,53.39797
1079003,299.6655,270.4314,56.28042,53.51488
1079020,297.9724,271.9644,56.13036,53.6696
1079037,297.0529,273.3492,56.04838,53.80838
1079053,295.6878,275.2292,55.92601,53.99532
1079072,294.3635,276.9374,55.80656,54.16376
1079086,293.0985,278.8926,55.69176,54.35487
1079104,292.2404,280.8699,55.61351,54.54634
1079119,291.4065,282.8108,55.53716,54.73256
1079136,290.725,284.7987,55.47454,54.92154
1079153,290.2839,286.9431,55.43391,55.12342
1079170,290.2547,289.1417,55.43122,55.3283
1079186,288.5219,291.7198,55.27075,55.56588
1079204,287.4307,293.879,55.16903,55.76267
1079220,286.8479,295.7609,55.11449,55.93258
1079236,285.8702,297.1527,55.02266,56.05729
1079253,284.9516,298.4706,54.936,56.17464
1079270,284.3082,299.9782,54.87508,56.30801
1079287,283.7421,301.5901,54.82131,56.44958
1079303,283.5278,303.0281,54.80092,56.575
1079321,283.0519,304.1109,54.75557,56.66889
1079336,282.4583,305.2001,54.69887,56.76286
1079352,281.9249,306.3514,54.64777,56.86169
1079369,281.3798,307.6355,54.59543,56.97129
1079386,280.8288,308.8901,54.54238,57.07777
1079404,280.2813,310.168,54.48953,57.1856
1079420,279.7644,311.437,54.43951,57.29205
1079436,279.311,312.683,54.39553,57.39598
1079454,278.8176,314.2681,54.34756,57.52735
1079473,278.5191,315.7671,54.31849,57.65072
1079491,278.1779,316.9292,54.28521,57.74578
1079507,277.8838,318.1645,54.25648,57.8463
1079523,277.8712,319.3391,54.25525,57.94135
1079540,278.0509,320.2707,54.27281,58.01639
1079557,278.3138,321.0423,54.29847,58.0783
1079573,278.7559,321.7896,54.34156,58.13805
1079591,279.061,322.4671,54.37124,58.19205
1079607,279.5822,323.0841,54.42184,58.24109
1079624,280.1506,323.2482,54.47689,58.2541
1079640,280.5057,323.3429,54.51121,58.26162
1079657,281.1316,323.2677,54.57155,58.25565
1079677,282.0374,323.2395,54.65856,58.25342
1079690,283.4678,323.0578,54.79522,58.239
1079708,286.079,322.3531,55.04231,58.18298
1079724,288.088,321.8499,55.23037,58.14286
1079741,289.782,321.2582,55.38757,58.09558
1079757,292.546,320.1114,55.64141,58.00358
1079773,294.8395,319.3843,55.84958,57.945
1079792,296.0937,318.6567,55.96247,57.88619
1079807,297.0127,317.7921,56.04478,57.81606
1079824,297.4791,316.823,56.08643,57.73712
1079840,297.7546,315.709,56.11098,57.64595
1079857,297.9458,315.0102,56.128,57.58853
1079874,298.007,313.9593,56.13344,57.50183
1079891,298.368,312.9183,56.16553,57.41555
1079909,298.8647,311.9877,56.20959,57.33806
1079925,299.2407,311.0346,56.24288,57.25836
1079943,299.7953,310.1185,56.29188,57.18143
1079959,300.2969,309.7091,56.33609,57.14695
1079974,301.0476,309.192,56.40206,57.1033
1079990,301.707,308.3601,56.45981,57.03287
1080007,302.2655,307.3821,56.50859,56.94972
1080023,302.5534,306.4985,56.53369,56.87428
1080040,302.8089,305.5445,56.55593,56.79248
1080056,302.9346,304.758,56.56686,56.72477
1080074,302.876,302.9346,56.56177,56.56686
1080097,302.941,302.1525,56.56742,56.49873
1080107,303.1092,301.1722,56.58205,56.41298
1080124,303.2016,300.3392,56.59007,56.33981
1080139,303.4133,299.4211,56.60845,56.25884
1080156,303.8062,298.4134,56.64251,56.16957
1080173,304.325,297.4888,56.6874,56.08729
1080191,304.4084,297.1728,56.6946,56.05909
1080207,304.9668,296.738,56.74277,56.02021
1080224,305.3859,295.6426,56.77884,55.92194
1080242,306.206,293.749,56.84924,55.75087
1080256,307.1141,291.9396,56.92687,55.586
1080275,308.0323,290.2162,57.00504,55.42767
1080291,308.8084,289.7649,57.07086,55.38599
1080308,309.9106,288.964,57.16393,55.31181
1080324,310.9694,288.1808,57.2529,55.23901
1080340,311.6846,287.5562,57.31275,55.18076
1080357,312.4527,287.1669,57.37682,55.14436
1080374,313.1026,286.7082,57.43085,55.10139
1080394,313.4066,286.2488,57.45607,55.05828
1080407,313.5179,285.1384,57.4653,54.95365
1080426,313.5888,284.2121,57.47117,54.86596
1080442,313.1353,283.4451,57.43357,54.79306
1080459,312.802,282.8929,57.40588,54.7404
1080474,312.4614,282.1012,57.37754,54.66468
1080492,312.3977,281.1138,57.37224,54.56984
1080509,312.3731,280.343,57.37019,54.49549
1080525,312.234,279.7215,57.3586,54.43535
1080541,311.7883,279.0556,57.32142,54.37072
1080558,311.3421,278.6221,57.28411,54.32853
1080574,310.9764,277.957,57.25348,54.26364
1080591,311.3049,276.7067,57.281,54.14109
1080608,311.7088,276.0602,57.31478,54.07743
1080625,310.899,274.9976,57.247,53.97239
1080642,310.3541,273.8628,57.20124,53.85962
1080658,309.7643,272.7536,57.15161,53.7488
1080675,309.097,271.6609,57.09528,53.63906
1080692,308.8522,271.0387,57.07457,53.57631
1080708,308.7033,270.4007,57.06195,53.51178
1080725,308.9441,269.799,57.08234,53.45073
1080742,309.6347,269.1593,57.14068,53.38564
1080759,309.9647,268.6222,57.16848,53.33084
1080774,310.4335,267.9895,57.20792,53.2661
1080792,311.0073,267.2614,57.25608,53.19136
1080809,311.5038,266.5558,57.29764,53.11866
1080824,311.9527,265.66,57.33514,53.02603
1080841,312.1475,264.6774,57.35139,52.92396
1080857,312.3471,263.606,57.36803,52.81212
1080874,312.7136,262.3826,57.39853,52.6837
1080891,313.4993,260.6242,57.46376,52.49778
1080909,314.6912,259.068,57.56226,52.33193
1080925,316.1965,257.5903,57.68591,52.17328
1080941,317.8111,255.9492,57.8176,51.99575
1080957,318.881,254.2607,57.90434,51.81161
1080974,319.3083,252.2184,57.93887,51.58686
1080992,319.303,250.2632,57.93844,51.36959
1081009,319.0159,248.1204,57.91525,51.12909
1081027,319.1203,246.1619,57.92369,50.90706
1081044,319.1988,244.545,57.93003,50.72215
1081061,319.3204,243.1354,57.93984,50.55973
1081077,319.7086,241.8004,57.97115,50.40487
1081093,320.3918,240.236,58.02612,50.22213
1081111,320.8858,238.8808,58.06575,50.06266
1081129,321.4269,237.787,58.10907,49.93319
1081145,321.9455,236.981,58.15049,49.83733
1081161,322.4724,236.1193,58.19248,49.73442
1081175,323.1679,234.9303,58.24774,49.5917
1081194,324.2155,233.4129,58.33066,49.40836
1081213,325.3629,232.1058,58.42103,49.24931
1081227,327.1448,230.6298,58.56046,49.06848
1081245,328.6985,229.3031,58.68115,48.90481
1081262,330.1428,228.1825,58.79258,48.76571
1081276,332.1906,226.8241,58.94937,48.59607
1081296,334.2999,225.2778,59.10938,48.40156
1081314,335.9581,223.9742,59.23414,48.23643
1081329,337.4848,222.7059,59.3482,48.07473
1081344,338.9465,221.0518,59.45669,47.8623
1081361,340.445,218.7213,59.56719,47.56002
1081378,342.0374,216.798,59.68384,47.30791
1081395,343.7065,214.7711,59.80523,47.03959
1081412,345.1242,212.8648,59.90765,46.78475
1081429,346.5043,211.098,60.00674,46.54638
1081445,347.924,209.2083,60.10807,46.2891
1081462,349.24,207.5322,60.20144,46.05884
1081478,350.3946,206.0694,60.28292,45.85632
1081496,351.7647,204.8047,60.37909,45.68003
1081516,352.953,203.8758,60.46204,45.54982
1081530,354.0862,203.1415,60.54075,45.44647
1081546,355.1369,202.2933,60.6134,45.32662
1081562,356.0761,201.3739,60.67805,45.19613
1081580,356.9261,200.6487,60.73634,45.09276
1081595,357.9146,199.8395,60.80387,44.977
1081614,358.7733,199.2497,60.8623,44.89233
1081628,359.6348,198.3753,60.9207,44.76633
1081646,359.9391,197.3236,60.94128,44.61406
1081664,360.2644,196.2376,60.96325,44.45597
1081678,360.6825,195.4257,60.99144,44.33723
1081695,360.8934,194.4058,61.00565,44.18738
1081710,361.0315,193.2843,61.01494,44.02171
1081727,361.2554,192.4983,61.02999,43.90506
1081743,361.5476,191.9332,61.04962,43.8209
1081761,361.6772,191.6355,61.05832,43.77647
1081779,361.794,191.2869,61.06615,43.72437
1081794,361.9291,190.7312,61.07521,43.6411
1081812,361.9592,190.0281,61.07722,43.53543
1081827,362.0062,189.5683,61.08037,43.46612
1081844,362.191,189.1502,61.09275,43.40297
1081862,362.6273,188.7944,61.12193,43.34911
1081877,363.0673,188.6146,61.15129,43.32187
1081894,363.193,188.6021,61.15968,43.31997
1081913,363.2034,188.5,61.16037,43.30447
1081928,363.2325,188.2637,61.16231,43.26861
1081945,362.7062,188.3651,61.1272,43.28401
1081961,362.268,188.2602,61.0979,43.26808
1081980,361.8407,188.0349,61.06928,43.23384
1081994,361.3398,187.8111,61.03567,43.19979
1082012,361.2934,187.7052,61.03255,43.18366
1082028,361.6413,187.9954,61.0559,43.22783
1082045,361.9261,188.0125,61.075,43.23042
1082064,362.0412,188.0195,61.08271,43.2315
1082079,362.0796,187.874,61.08529,43.20937
1082096,362.1372,187.7282,61.08915,43.18717
1082112,362.2874,187.6682,61.0992,43.17802
1082128,362.4305,187.7405,61.10877,43.18904
1082145,362.5457,187.7776,61.11647,43.19468
1082162,362.6377,187.7537,61.12262,43.19105
1082181,362.5974,187.7509,61.11993,43.19062
1082196,362.5437,187.8292,61.11634,43.20254
1082213,362.492,187.8736,61.11288,43.20929
1082229,362.3175,187.8713,61.10121,43.20894
1082246,362.1182,187.6648,61.08788,43.17751
1082263,362.0506,187.5225,61.08335,43.15582
1082279,362.0444,187.4288,61.08293,43.14153
1082296,362.0472,187.3125,61.08312,43.12379
1082313,361.9933,187.2276,61.07951,43.11083
1082330,361.8197,187.254,61.06787,43.11486
1082347,361.5381,187.1815,61.04898,43.1038
1082364,361.2313,186.8799,61.02837,43.05769
1082380,360.955,186.6832,61.00979,43.0276
1082396,360.6718,186.5674,60.99073,43.00986
1082414,360.2838,186.6789,60.96456,43.02693
1082432,360.0288,186.8882,60.94734,43.05896
1082446,359.9203,186.9623,60.94001,43.0703
1082463,359.6342,187.0753,60.92066,43.08757
1082480,359.3483,187.0625,60.9013,43.08561
1082497,359.1276,187.0189,60.88634,43.07894
1082513,359.0596,187.0984,60.88173,43.0911
1082529,359.091,187.0269,60.88386,43.08018
1082547,359.2104,187.1615,60.89196,43.10073
1082565,359.1349,187.3265,60.88684,43.12592
1082582,358.9492,187.5517,60.87424,43.16027
1082597,358.826,187.7772,60.86588,43.19463
1082613,358.7649,188.0098,60.86172,43.23002
1082631,358.7549,188.0969,60.86105,43.24327
1082646,358.9318,188.2422,60.87305,43.26534
1082664,359.0682,188.3536,60.88231,43.28226
1082681,359.0476,188.4899,60.88092,43.30295
1082697,359.0451,188.6046,60.88075,43.32034
1082713,359.1773,188.5914,60.88971,43.31834
1082729,359.2817,188.5237,60.89679,43.30807
1082747,359.299,188.5382,60.89796,43.31027
1082764,359.2158,188.5952,60.89232,43.31891
1082782,359.0705,188.5419,60.88247,43.31084
1082799,358.9868,188.5147,60.87679,43.30672
1082815,358.7552,188.5032,60.86106,43.30496
1082832,358.4514,188.4931,60.84042,43.30344
1082849,358.2324,188.5258,60.82552,43.3084
1082865,358.0136,188.4023,60.81062,43.28965
1082882,357.7719,188.2096,60.79414,43.26039
1082898,357.5606,188.1367,60.77972,43.24932
1082915,357.3422,188.0834,60.7648,43.24121
1082939,357.2473,188.0393,60.75831,43.2345
1082950,357.2392,188.0307,60.75776,43.2332
1082967,357.2484,187.9541,60.75839,43.22155
1082985,357.3493,187.9777,60.76529,43.22513
1083003,357.3249,187.9673,60.76362,43.22356
1083016,357.3538,187.9794,60.76559,43.22539
1083030,357.3846,187.9455,60.7677,43.22025
1083051,357.386,188.0181,60.76779,43.23128
1083065,357.2689,188.0887,60.75979,43.24202
1083081,357.0447,188.2197,60.74446,43.26193
1083097,356.9387,188.3067,60.73721,43.27515
1083114,356.8946,188.3976,60.73418,43.28893
1083132,356.8853,188.5083,60.73355,43.30574
1083148,356.8351,188.6685,60.73011,43.33003
1083166,356.6572,188.7587,60.71792,43.3437
1083183,356.4814,188.968,60.70588,43.37541
1083199,356.23,189.1226,60.68862,43.39879
1083214,355.7715,189.5209,60.65711,43.45897
1083233,355.2328,190.0698,60.62001,43.54171
1083248,354.5406,190.7447,60.57221,43.64312
1083266,353.8423,191.7399,60.52384,43.79206
1083284,353.3115,192.6807,60.48698,43.93217
1083299,352.8388,193.9528,60.45409,44.12057
1083319,352.3815,195.3022,60.4222,44.31912
1083333,351.8904,197.1165,60.38788,44.58397
1083348,351.4768,199.1578,60.35893,44.87911
1083365,350.9912,201.0246,60.32487,45.14639
1083380,350.3609,203.011,60.28055,45.42807
1083396,349.1225,204.828,60.19312,45.68328
1083414,347.7966,206.6505,60.099,45.93695
1083430,346.0296,208.5363,59.97272,46.19702
1083448,344.4712,210.2679,59.86055,46.43366
1083465,342.7902,211.9229,59.73869,46.65793
1083480,340.6704,213.7023,59.58376,46.89701
1083497,338.6396,215.3256,59.43397,47.11327
1083515,336.7846,216.894,59.29598,47.32056
1083530,334.7926,218.4612,59.14655,47.52607
1083547,333.2,219.3896,59.02613,47.64707
1083565,331.8526,220.8332,58.92358,47.8341
1083581,331.0847,222.497,58.86487,48.04799
1083598,330.1305,224.2393,58.79164,48.2701
1083613,328.5766,226.3454,58.6717,48.53602
1083631,326.6786,228.3809,58.52409,48.79039
1083647,324.2516,230.5502,58.33351,49.05869
1083666,321.9302,232.6328,58.14927,49.31356
1083682,320.1408,234.5256,58.00594,49.54294
1083697,317.9095,236.7984,57.8256,49.81556
1083715,316.0351,238.7112,57.67269,50.04263
1083731,314.1161,240.9991,57.5148,50.31144
1083748,312.7239,242.9413,57.39939,50.53728
1083764,311.344,244.716,57.28427,50.74177
1083780,309.5909,246.1553,57.13698,50.90631
1083797,307.5484,247.456,56.96388,51.05401
1083814,305.4899,248.7414,56.78779,51.19905
1083830,303.167,249.9908,56.58707,51.33916
1083849,301.1103,250.8611,56.40755,51.43626
1083866,298.6741,251.7959,56.1927,51.54009
1083881,296.2437,252.9604,55.97593,51.66878
1083898,294.0341,254.3592,55.77673,51.82239
1083915,291.6115,255.702,55.55595,51.96888
1083931,289.2299,256.8672,55.33647,52.09523
1083949,287.399,257.7583,55.16607,52.19137
1083965,285.5485,258.8329,54.99236,52.30677
1083982,284.1664,259.6278,54.86161,52.39174
1083998,282.9056,260.1798,54.74162,52.45055
1084014,281.3088,260.5742,54.5886,52.49248
1084032,279.8181,261.0985,54.44471,52.54809
1084048,278.6755,261.3393,54.33373,52.57358
1084065,277.3428,261.6242,54.20353,52.6037
1084084,276.4756,261.6948,54.11835,52.61117
1084098,275.5665,261.7425,54.02869,52.6162
1084114,274.709,261.7858,53.94376,52.62077
1084131,273.9112,261.978,53.86444,52.64106
1084149,273.4261,262.2,53.81606,52.66447
1084166,272.8004,262.5541,53.75349,52.70175
1084184,271.9671,263.1213,53.66987,52.76133
1084201,271.1987,263.6858,53.59246,52.82047
1084217,270.6649,264.2174,53.53852,52.87601
1084233,270.138,264.7521,53.48515,52.93174
1084250,269.3581,265.1834,53.40589,52.97659
1084268,268.5723,265.641,53.32574,53.02406
1084285,268.1003,266.0994,53.27745,53.07152
1084301,267.6584,266.2589,53.23214,53.08801
1084317,267.1584,266.0256,53.18076,53.06388
1084334,266.7693,265.7674,53.14068,53.03716
1084352,266.4749,265.4319,53.11031,53.00238
1084367,266.1917,265.3022,53.08106,52.98892
1084384,266.017,265.2,53.063,52.9783
1084400,266.2157,265.0565,53.08354,52.9634
1084417,266.5138,264.7633,53.11433,52.9329
1084434,267.0175,264.2704,53.16626,52.88154
1084452,267.3495,263.9112,53.20041,52.84403
1084470,267.5513,263.6079,53.22115,52.81232
1084485,267.6041,263.3498,53.22657,52.78528
1084501,267.6038,263.0696,53.22653,52.7559
1084520,267.5788,262.9078,53.22397,52.73892
1084535,267.4281,262.8456,53.20849,52.73238
1084551,267.1696,263.0547,53.18191,52.75434
1084569,266.9525,263.2857,53.15956,52.77856
1084585,266.9325,263.5789,53.15751,52.80928
1084603,266.9468,263.7082,53.15897,52.82281
1084618,266.923,263.8239,53.15652,52.83492
1084636,266.801,264.0828,53.14395,52.86197
1084653,266.7542,264.425,53.13912,52.89767
1084668,266.9396,264.7747,53.15823,52.93409
1084687,267.3718,264.9448,53.2027,52.95179
1084707,267.7983,265.3186,53.2465,52.99063
1084720,268.3296,266.1422,53.30092,53.07594
1084736,269.0439,267.1317,53.37389,53.17801
1084752,270.1171,268.2217,53.48302,53.28988
1084769,271.5502,268.681,53.6279,53.33685
1084786,272.8738,268.3895,53.76083,53.30705
1084802,273.9626,268.0862,53.86956,53.27601
1084820,274.8235,267.8703,53.95512,53.25388
1084836,275.8361,267.5605,54.05532,53.22208
1084852,277.2201,267.3435,54.1915,53.19979
1084871,278.3551,267.2466,54.3025,53.18983
1084887,279.6566,267.5692,54.42906,53.22298
1084904,280.9899,267.8229,54.5579,53.24902
1084924,282.4577,268.2425,54.69881,53.292
1084940,283.7622,268.3548,54.82323,53.3035
1084954,285.2652,268.2432,54.96563,53.29208
1084973,286.3937,268.0936,55.07189,53.27676
1084993,287.7834,267.9554,55.20197,53.2626
1085013,289.3365,267.7597,55.34636,53.24253
1085026,290.9049,267.4124,55.49109,53.20687
1085036,292.8999,266.9522,55.67368,53.15953
1085051,295.2731,266.7381,55.88868,53.13747
1085070,297.2194,266.6481,56.06325,53.12819
1085085,299.2834,266.4953,56.24666,53.11242
1085100,301.8356,266.2648,56.47105,53.08862
1085118,304.3852,265.9704,56.6926,53.05817
1085136,306.7431,265.7947,56.8952,53.03999
1085153,309.2886,265.8083,57.11146,53.04139
1085171,311.3504,265.9212,57.28481,53.05308
1085187,313.3899,265.825,57.45469,53.04313
1085202,315.9119,265.9858,57.6626,53.05977
1085221,318.0623,265.9189,57.83801,53.05284
1085237,320.2485,265.7285,58.01461,53.03313
1085253,322.5933,265.6927,58.2021,53.02942
1085271,324.7135,265.5744,58.36994,53.01716
1085288,326.9363,265.2214,58.54421,52.98053
1085302,329.3942,264.8187,58.73491,52.93866
1085320,332.0825,264.3262,58.94112,52.88736
1085338,334.3152,263.9862,59.11054,52.85187
1085353,336.9968,263.6636,59.31182,52.81815
1085371,339.6342,263.5216,59.5075,52.80328
1085388,342.6099,263.2777,59.72557,52.77773
1085406,345.2481,262.9077,59.91656,52.73891
1085420,348.1288,262.3913,60.12263,52.68461
1085435,350.9879,261.9759,60.32463,52.64084
1085453,354.189,261.7404,60.54787,52.61598
1085472,356.6949,261.634,60.7205,52.60474
1085488,359.8158,261.5818,60.93294,52.59922
1085504,362.8949,261.3606,61.1398,52.57583
1085521,365.7656,261.165,61.33024,52.55513
1085537,368.527,260.9563,61.51127,52.53301
1085553,371.7859,260.8427,61.72223,52.52097
1085572,374.7528,261.1046,61.91182,52.54874
1085588,377.9102,261.6922,62.11103,52.61089
1085606,380.9471,262.412,62.3002,52.68679
1085623,383.8741,263.565,62.4803,52.80782
1085638,386.5795,264.617,62.64485,52.91767
1085653,389.8006,266.2578,62.83842,53.0879
1085672,392.3396,268.0698,62.98922,53.27433
1085688,394.5971,270.0818,63.12201,53.47944
1085705,397.2083,272.627,63.2741,53.73612
