Time Stamp(ms),Intersection,,Angle,
,x,y,x,y
1164818,303.5349,249.7206,56.619,51.30893
1164834,302.9924,250.3109,56.5719,51.37492
1164853,302.8279,251.1069,56.55758,51.4636
1164869,302.7922,252.0959,56.55448,51.57331
1164884,302.6305,253.4699,56.5404,51.72485
1164902,302.4125,254.5193,56.52141,51.83991
1164919,302.1617,255.3335,56.49953,51.92878
1164934,301.851,256.2737,56.47239,52.03097
1164951,301.5568,257.0141,56.44667,52.11111
1164967,301.4384,257.3237,56.43631,52.14454
1164984,301.4106,257.8036,56.43387,52.19625
1165001,301.098,258.3665,56.40648,52.25675
1165016,300.5254,259.2026,56.35619,52.34632
1165033,299.9526,259.9769,56.30576,52.42894
1165053,299.1351,260.6006,56.23354,52.49528
1165070,297.8762,261.4666,56.1218,52.58705
1165088,296.5019,262.6603,55.99908,52.71291
1165103,294.9008,263.8773,55.85511,52.84049
1165120,293.5185,265.0154,55.72995,52.95913
1165136,292.222,265.8616,55.61182,53.04691
1165153,290.6642,266.3148,55.46894,53.09379
1165171,289.286,266.326,55.34167,53.09494
1165184,287.8449,266.2957,55.20771,53.0918
1165203,286.4064,266.1211,55.07308,53.07376
1165222,284.9747,265.9815,54.93818,53.05932
1165237,283.7152,265.8261,54.81876,53.04324
1165255,282.2249,265.7487,54.67653,53.03522
1165270,281.1136,265.5674,54.56982,53.01643
1165286,280.3352,265.278,54.49474,52.98641
1165303,279.6949,264.8091,54.43277,52.93767
1165319,279.2672,264.03,54.39128,52.85645
1165335,278.4115,263.3008,54.30801,52.78015
1165353,277.8196,262.3724,54.2502,52.68262
1165369,277.4954,260.9244,54.21848,52.52963
1165387,277.1439,259.2812,54.18402,52.35472
1165408,276.8825,257.9675,54.15836,52.21389
1165420,276.6065,256.4368,54.13123,52.04864
1165435,276.4067,254.4034,54.11158,51.82724
1165451,276.4595,251.9173,54.11677,51.55354
1165468,276.4866,249.7464,54.11943,51.31183
1165486,276.6519,247.8169,54.1357,51.09482
1165503,276.8147,246.0298,54.1517,50.892
1165520,277.0562,244.4819,54.17542,50.7149
1165536,277.2711,242.9473,54.1965,50.53798
1165553,277.457,241.8049,54.21471,50.4054
1165569,278.0747,240.6895,54.27513,50.27525
1165586,278.5627,239.6771,54.32275,50.15649
1165603,278.8801,238.615,54.35365,50.03126
1165619,279.0224,237.7533,54.36749,49.92918
1165635,279.0743,236.6411,54.37253,49.79679
1165655,279.048,235.5376,54.36997,49.6647
1165670,279.0296,234.5377,54.36819,49.5444
1165684,279.1073,232.9318,54.37574,49.34993
1165705,279.1253,231.4658,54.37749,49.17107
1165719,279.1414,230.2308,54.37906,49.01937
1165735,279.1485,228.8298,54.37975,48.84616
1165753,279.0809,227.578,54.37317,48.69037
1165768,279.009,226.1079,54.36618,48.50617
1165786,278.9687,224.9597,54.36226,48.36136
1165802,279.103,223.7171,54.37532,48.20372
1165818,279.2421,222.7541,54.38884,48.08088
1165834,279.3456,221.7878,54.39888,47.95704
1165852,279.3577,220.9325,54.40006,47.84691
1165869,279.4315,220.1698,54.40723,47.74831
1165887,279.6658,219.5847,54.42995,47.67242
1165903,280.0594,218.9333,54.46807,47.58767
1165923,280.4305,218.5263,54.50395,47.53457
1165935,280.8739,217.8223,54.54673,47.44249
1165951,281.3094,216.9586,54.58866,47.32906
1165969,281.6543,216.3192,54.62181,47.24478
1165986,281.9039,215.7581,54.64576,47.17059
1166004,282.1649,215.2057,54.67078,47.09735
1166022,282.5029,214.7158,54.70313,47.03224
1166035,282.7757,214.2291,54.72921,46.96738
1166050,282.9902,213.7754,54.74969,46.90678
1166068,283.1053,213.1951,54.76067,46.82909
1166086,283.2608,212.7524,54.7755,46.76964
1166103,283.4264,212.3563,54.79127,46.71636
1166119,283.5417,212.2709,54.80225,46.70486
1166135,283.6158,212.0951,54.8093,46.68116
1166153,283.6325,211.8078,54.81089,46.6424
1166168,283.8162,211.242,54.82835,46.56589
1166187,283.954,210.8971,54.84145,46.51915
1166202,284.0454,210.6302,54.85013,46.48291
1166218,284.099,210.5902,54.85522,46.47748
1166235,284.2083,210.4106,54.8656,46.45306
1166252,284.3559,210.0702,54.8796,46.40674
1166268,284.5303,209.7512,54.89613,46.36326
1166284,284.7193,209.4821,54.91402,46.32652
1166302,284.8953,209.3016,54.93068,46.30185
1166319,284.9939,209.1282,54.93999,46.27813
1166336,285.1172,208.9024,54.95165,46.24721
1166353,285.31,208.7306,54.96986,46.22367
1166370,285.5557,208.6582,54.99303,46.21375
1166386,285.8243,208.6163,55.01834,46.20799
1166403,285.9884,208.4955,55.03379,46.19142
1166420,286.1902,208.4714,55.05277,46.1881
1166435,286.5417,208.5493,55.08578,46.19879
1166454,286.9356,208.7357,55.12271,46.22436
1166470,287.4141,208.9523,55.16748,46.25406
1166486,287.887,209.0991,55.21164,46.27415
1166504,288.4382,209.2168,55.26297,46.29025
1166519,289.0776,209.5033,55.32236,46.32942
1166535,290.0158,210.0488,55.40917,46.40383
1166558,290.9884,210.584,55.49877,46.47663
1166570,291.9764,211.1411,55.58937,46.55222
1166587,293.0652,211.6861,55.68873,46.62595
1166603,294.5863,212.4848,55.82671,46.73366
1166621,295.9442,213.2717,55.94905,46.83934
1166637,297.2722,214.2079,56.06797,46.96456
1166652,298.8419,215.3509,56.20757,47.11662
1166674,300.4756,216.239,56.35181,47.23418
1166686,302.286,216.9024,56.51038,47.32166
1166703,304.0962,217.581,56.66762,47.41085
1166719,305.7948,218.329,56.81398,47.5088
1166741,307.651,219.1731,56.97261,47.6189
1166758,309.2488,219.9436,57.1081,47.719
1166770,311.1918,220.7693,57.27153,47.82585
1166787,313.0026,221.5619,57.42255,47.92799
1166806,314.585,222.2197,57.5535,48.01246
1166821,316.2571,223.2038,57.69087,48.13832
1166838,317.6813,224.0741,57.80705,48.24912
1166855,319.3076,225.1613,57.93881,48.38685
1166874,320.9199,226.1414,58.06849,48.51038
1166892,322.8107,227.1139,58.21938,48.63236
1166909,324.1801,227.7948,58.32786,48.71741
1166922,325.996,228.3915,58.4707,48.79171
1166938,327.6816,228.8222,58.60225,48.84521
1166953,329.4758,229.242,58.74121,48.89724
1166970,331.2064,229.6616,58.87419,48.94913
1166988,333.1943,230.3721,59.0257,49.03677
1167007,334.7478,231.0618,59.14317,49.12154
1167023,336.486,231.5496,59.27367,49.18133
1167038,338.0273,232.1993,59.38855,49.26072
1167055,340.1325,232.9676,59.54421,49.35429
1167075,341.8116,233.5575,59.66734,49.42588
1167089,343.4158,234.3527,59.78415,49.52208
1167105,345.0387,235.1618,59.90148,49.61956
1167123,346.3913,235.7871,59.99865,49.69463
1167138,347.8044,236.5038,60.09956,49.78039
1167156,349.2613,237.2921,60.20294,49.87437
1167174,350.5328,238.274,60.29264,49.99092
1167189,351.6876,239.1109,60.37369,50.08981
1167205,352.9212,239.9748,60.45983,50.19147
1167223,353.9823,240.6768,60.53355,50.27376
1167238,354.8163,241.135,60.59126,50.32731
1167258,356.1988,242.2306,60.68648,50.4549
1167271,357.4186,243.1024,60.77002,50.55592
1167289,358.4984,243.9088,60.84362,50.64898
1167304,359.5063,244.6781,60.91201,50.73742
1167323,360.5129,245.4764,60.98001,50.82883
1167338,361.6313,246.2393,61.05524,50.91587
1167355,363.0603,247.0875,61.15083,51.01225
1167372,364.1789,247.5965,61.22526,51.0699
1167388,364.9189,247.9632,61.27431,51.11135
1167405,366.1115,248.5271,61.35303,51.17493
1167423,366.5317,248.641,61.38067,51.18775
1167438,367.7337,249.0664,61.45948,51.23558
1167463,368.546,249.3777,61.5125,51.27052
1167475,369.1022,249.7506,61.54871,51.31229
1167505,370.4087,250.5243,61.63343,51.39873
1167523,370.9795,251.0035,61.6703,51.45211
1167538,371.586,251.356,61.70938,51.49129
1167548,372.308,251.808,61.75576,51.54144
1167557,372.9681,252.1649,61.79806,51.58095
1167569,374.2195,252.5908,61.87791,51.62802
1167587,375.7378,252.847,61.97425,51.65628
1167609,376.9894,252.9861,62.05321,51.67161
1167620,378.7432,253.1621,62.16315,51.69099
1167639,380.5213,253.3374,62.27382,51.71028
1167657,382.4891,253.3112,62.39535,51.70741
1167670,385.0584,252.9619,62.55256,51.66895
1167688,387.7346,252.7426,62.71456,51.64477
1167704,390.9452,252.2327,62.90659,51.58845
1167721,394.2729,251.9988,63.10301,51.56257
1167738,397.5682,251.789,63.29494,51.53933
1167756,400.5731,251.5101,63.46775,51.50839
1167770,403.5226,251.1941,63.63536,51.4733
1167786,406.5685,250.8157,63.80641,51.43121
1167803,409.5873,250.1508,63.97391,51.35704
1167820,412.2076,249.3267,64.11769,51.26479
1167836,414.5907,248.2666,64.24718,51.14558
1167853,416.8755,247.4301,64.37019,51.05107
1167870,418.7511,246.7314,64.47036,50.97184
1167888,420.4117,246.0299,64.55843,50.89202
1167907,421.7251,245.271,64.6277,50.80535
1167920,422.9294,244.5759,64.6909,50.72569
1167936,423.9933,243.6977,64.74648,50.62465
1167953,425.0494,242.3652,64.80145,50.47052
1167973,426.0588,241.214,64.85376,50.33654
1167987,427.1192,239.972,64.9085,50.19114
1168005,427.9955,238.6765,64.95357,50.03853
1168021,428.7769,237.3432,64.99363,49.88045
1168037,429.2545,236.2517,65.01805,49.75026
1168053,429.4456,235.0009,65.02782,49.6002
1168070,429.5313,233.8743,65.0322,49.46425
1168087,429.2519,232.9592,65.01792,49.35326
1168103,428.5298,231.9299,64.98097,49.22783
1168121,427.8472,231.133,64.94595,49.13028
1168137,426.9046,230.2891,64.89744,49.02655
1168154,425.3174,229.5137,64.81535,48.93085
1168171,423.8446,228.7968,64.73873,48.84205
1168187,421.8507,227.9674,64.63431,48.73893
1168204,420.116,227.2388,64.54279,48.64798
1168220,418.1076,226.5612,64.43607,48.5631
1168237,415.9483,225.9535,64.3204,48.48674
1168253,413.7473,225.3144,64.20149,48.40619
1168270,411.2956,224.7172,64.06782,48.33068
1168288,408.8025,223.9993,63.93056,48.23961
1168305,406.8467,223.6943,63.82193,48.20082
1168321,404.8383,223.294,63.7095,48.14983
1168338,403.1548,222.8183,63.61457,48.0891
1168354,401.5369,222.1636,63.52274,48.00527
1168371,400.0706,221.5503,63.439,47.92649
1168388,398.7711,221.0594,63.36436,47.86327
1168404,397.6672,220.6426,63.30067,47.80947
1168421,396.6559,220.1889,63.24206,47.75078
1168438,395.8479,219.8158,63.19506,47.70243
1168455,394.7917,219.4319,63.1334,47.65256
1168476,393.9912,219.0441,63.08649,47.6021
1168488,392.9985,218.652,63.0281,47.55098
1168505,391.9811,218.4412,62.96802,47.52346
1168522,391.0307,218.4762,62.91167,47.52803
1168537,389.8206,218.634,62.83961,47.54863
1168554,388.4882,218.703,62.75986,47.55764
1168572,386.7848,218.445,62.65726,47.52396
1168589,385.2892,218.3111,62.5666,47.50645
1168605,383.7072,218.3545,62.47009,47.51213
1168622,381.7776,218.772,62.35152,47.56664
1168639,379.9551,218.797,62.23867,47.5699
1168655,377.8666,219.106,62.1083,47.61016
1168674,375.1474,219.71,61.93686,47.6887
1168695,372.9113,220.1465,61.79442,47.7453
1168707,370.086,220.8187,61.61255,47.83222
1168723,367.3666,221.5393,61.43545,47.92509
1168742,364.8073,222.2071,61.26692,48.01085
1168758,362.0388,223.1331,61.08256,48.1293
1168771,359.1741,224.2596,60.8895,48.27267
1168789,356.421,225.6875,60.70173,48.45324
1168807,353.6697,226.7824,60.51187,48.59084
1168828,351.2242,227.7226,60.34122,48.70841
1168842,348.6052,228.7923,60.15646,48.8415
1168859,346.1102,229.9949,59.9785,48.99028
1168872,343.4094,231.1301,59.78368,49.12991
1168892,340.6157,231.9376,59.57974,49.22878
1168910,337.952,232.7302,59.38295,49.32541
1168926,335.0207,233.6283,59.16373,49.43446
1168943,332.2773,234.561,58.95597,49.54721
1168957,329.5435,235.6175,58.74643,49.67429
1168972,326.7774,236.3878,58.53181,49.76653
1168988,323.9804,237.0333,58.31208,49.84356
1169005,320.9928,238.0432,58.07433,49.96357
1169023,317.8215,238.9844,57.81845,50.07489
1169039,314.8582,239.8668,57.57602,50.17878
1169055,311.4429,240.8707,57.29255,50.29644
1169075,308.6165,241.6683,57.0546,50.38951
1169092,305.7729,242.3921,56.81209,50.47363
1169108,302.1672,243.0618,56.50002,50.55122
1169126,298.9531,243.7062,56.21743,50.62563
1169143,295.6154,244.4064,55.9195,50.70623
1169162,292.2552,244.9763,55.61486,50.77161
1169177,289.2729,245.3448,55.34046,50.81379
1169191,285.5961,245.537,54.99684,50.83577
1169209,282.2305,245.5935,54.67706,50.84222
1169223,279.1619,245.7299,54.38105,50.85779
1169239,276.3716,245.8574,54.10812,50.87235
1169256,273.4882,245.9774,53.82226,50.88604
1169273,270.6413,246.0538,53.53614,50.89474
1169289,267.3266,246.224,53.19805,50.91413
1169311,264.5304,246.4734,52.90865,50.94252
1169324,262.4128,246.7336,52.68687,50.97209
1169339,260.4406,247.2009,52.47828,51.02512
1169356,258.1344,247.6293,52.23183,51.07361
1169372,255.94,248.0281,51.99476,51.11867
1169390,254.1718,248.3719,51.80187,51.15746
1169406,252.3472,248.6607,51.6011,51.18998
1169423,250.683,248.8945,51.41642,51.21627
1169441,249.1707,249.1345,51.24729,51.24322
1169456,247.9703,249.326,51.11215,51.26472
1169473,246.7265,249.5829,50.97128,51.29351
1169491,245.9634,249.9162,50.88443,51.33081
1169507,245.2209,250.1711,50.79962,51.35931
1169524,244.4242,250.3461,50.70826,51.37885
1169540,243.6405,250.3127,50.61806,51.37513
1169557,243.142,250.0729,50.5605,51.34834
1169573,242.7176,249.7771,50.51138,51.31525
1169590,242.211,249.4044,50.45261,51.27351
1169607,241.4369,248.7829,50.36255,51.20372
1169624,240.4446,248.3846,50.24657,51.15889
1169640,239.2053,247.9556,50.10094,51.1105
1169659,238.319,247.5307,49.99624,51.06246
1169673,236.9839,246.7522,49.83767,50.9742
1169690,234.744,245.8387,49.56927,50.87021
1169712,233.0291,245.1733,49.36177,50.79417
1169724,230.2993,244.2323,49.0278,50.68621
1169741,227.4905,243.0693,48.67944,50.55209
1169757,224.1422,241.6736,48.25777,50.39012
1169774,219.9552,239.7867,47.7205,50.16938
1169790,215.3801,237.7144,47.1205,49.92456
1169820,210.3206,235.4119,46.44082,49.64961
1169831,207.2431,233.6382,46.01894,49.43567
1169843,203.2658,230.9457,45.46399,49.10729
1169861,199.6333,228.1868,44.94742,48.76625
1169874,197.0626,225.5668,44.57615,48.43802
1169893,194.4637,222.2185,44.19591,48.01231
1169910,192.958,219.6476,43.97335,47.68059
1169926,192.2478,217.2798,43.86779,47.3713
1169944,192.9502,215.0023,43.97219,47.07034
1169959,193.9207,212.9543,44.11583,46.79676
1169974,195.726,211.1208,44.38121,46.54947
1169991,198.7745,209.6015,44.82393,46.34283
1170008,201.6899,207.9781,45.24104,46.12028
1170025,205.0366,206.4304,45.71243,45.90643
1170042,208.4868,204.7295,46.19022,45.66951
1170058,211.1052,202.9471,46.54736,45.41904
1170074,213.5659,200.9206,46.87875,45.13157
1170091,216.4871,198.5868,47.26693,44.79686
1170110,219.3082,196.5074,47.63649,44.49533
1170126,222.2245,194.1045,48.01308,44.14297
1170142,224.2772,191.2497,48.2749,43.71879
1170159,226.9073,189.3648,48.60649,43.43539
1170175,229.5979,187.4468,48.94127,43.14428
1170192,231.8367,185.2794,49.21645,42.81193
1170209,234.1844,182.9868,49.50175,42.45645
1170225,236.7313,181.1454,49.80755,42.16798
1170242,239.2302,179.2892,50.10387,41.87451
1170259,241.5446,177.8226,50.3751,41.64072
1170274,243.879,176.3574,50.64555,41.40543
1170292,246.0394,175.1729,50.8931,41.21396
1170309,247.9053,174.5274,51.10481,41.10915
1170326,250.008,173.6479,51.34108,40.9658
1170343,252.4689,173.1923,51.61455,40.8913
1170360,254.7772,172.6007,51.8681,40.7943
1170377,256.7543,172.1873,52.08302,40.72635
1170392,258.4986,171.8456,52.27093,40.6701
1170410,260.0546,171.3618,52.43722,40.59027
1170426,261.7129,169.9132,52.61308,40.35009
1170443,263.3883,168.5601,52.78932,40.1242
1170461,264.8817,167.0583,52.94523,39.87172
1170477,265.7975,165.8542,53.04027,39.66793
1170494,266.8456,165.0367,53.14855,39.52888
1170513,268.0664,164.3026,53.27398,39.40355
1170529,269.2864,163.5627,53.39859,39.27677
1170547,270.0981,163.0215,53.4811,39.18374
1170563,270.8912,162.4818,53.56141,39.09071
1170579,271.5484,162.2591,53.62773,39.05227
1170596,272.6566,161.7693,53.73909,38.96754
1170613,273.912,161.338,53.86451,38.89277
1170632,275.0634,161.0016,53.9789,38.83434
1170647,276.3017,160.828,54.10124,38.80415
1170661,277.7404,160.8315,54.24245,38.80477
1170683,279.2417,160.796,54.3888,38.79859
1170695,280.9294,160.1402,54.55207,38.68428
1170712,282.6694,158.8818,54.71905,38.46395
1170733,284.2648,157.8714,54.87096,38.28605
1170747,285.8088,157.0466,55.01688,38.14017
1170762,287.3329,156.1239,55.15989,37.9763
1170778,288.8764,155.2237,55.30369,37.81569
1170794,290.4886,154.684,55.45277,37.71909
1170811,291.8584,154.3304,55.57857,37.65564
1170827,293.1966,153.8751,55.70069,37.57381
1170844,294.4862,153.4001,55.81766,37.48822
1170864,295.8227,152.9226,55.93813,37.40199
1170878,297.0706,152.5415,56.04996,37.33303
1170898,298.1602,152.4467,56.14707,37.31587
1170914,299.1848,152.7039,56.23794,37.36243
1170929,300.314,152.7657,56.33759,37.37362
1170945,301.415,152.7776,56.43425,37.37577
1170960,302.5579,153.0497,56.53408,37.42498
1170978,303.5235,153.429,56.61802,37.49343
1170994,304.5396,153.9734,56.70593,37.59149
1171011,305.4118,154.7596,56.78107,37.73264
1171027,306.1554,155.5982,56.8449,37.8826
1171047,306.8455,156.1049,56.90393,37.97292
1171062,307.4153,156.4132,56.95255,38.02775
1171077,307.9187,156.6511,56.99538,38.07002
1171094,308.4593,156.7903,57.04128,38.09473
1171112,308.9289,157.0165,57.08106,38.13483
1171127,309.4616,157.4856,57.12608,38.21788
1171145,309.9164,157.8876,57.16442,38.28889
1171162,310.2335,158.3659,57.1911,38.37322
1171183,310.5807,159.0863,57.22029,38.49985
1171199,311.0061,160.0746,57.25597,38.67283
1171212,311.5898,161.7092,57.30484,38.95714
1171230,312.0934,163.6316,57.34688,39.28858
1171248,312.7044,166.318,57.39776,39.74657
1171265,313.5902,168.526,57.47128,40.11849
1171278,314.6378,170.7878,57.55786,40.4953
1171293,315.8106,173.39,57.65429,40.92366
1171310,317.0772,176.0024,57.75786,41.34817
1171328,318.7339,177.945,57.89244,41.66029
1171346,321.4166,179.0656,58.10825,41.83898
1171362,323.8578,180.0257,58.30239,41.99128
1171378,325.8485,180.6814,58.45914,42.09488
1171394,327.8488,181.4422,58.61525,42.21466
1171412,329.7833,182.2514,58.76491,42.34156
1171428,331.8305,183.1227,58.9219,42.47765
1171445,334.1842,183.8037,59.10065,42.58359
1171466,336.117,184.4451,59.24605,42.68303
1171483,338.4648,185.2958,59.42101,42.81446
1171500,340.6337,185.8325,59.58106,42.89708
1171513,343.0647,186.2371,59.75865,42.95923
1171529,345.3765,186.433,59.9258,42.98927
1171545,347.836,186.6257,60.1018,43.0188
1171561,350.5618,186.8318,60.29469,43.05033
1171579,353.2975,187.0255,60.48601,43.07995
1171595,355.9788,187.155,60.67136,43.09974
1171612,358.8348,187.4223,60.86647,43.14054
1171628,361.7912,187.809,61.06596,43.19947
1171646,364.2808,188.1552,61.23202,43.25213
1171663,367.0142,189.2513,61.41235,43.41825
1171681,369.4955,190.8057,61.57427,43.65228
1171696,371.6243,192.3318,61.71185,43.88029
1171712,374.3145,193.6151,61.88396,44.07068
1171733,377.0522,194.3781,62.05716,44.1833
1171746,379.9978,194.5689,62.24132,44.2114
1171763,382.5366,194.7889,62.39827,44.24376
1171779,384.8513,195.1369,62.53995,44.29487
1171795,387.3243,195.5576,62.68984,44.35655
1171813,389.3837,195.9787,62.81351,44.41816
1171828,391.5961,196.4753,62.94522,44.49065
1171846,393.6613,196.8939,63.06711,44.55161
1171867,395.4827,197.2736,63.17377,44.6068
1171882,397.2141,197.6247,63.27443,44.65774
1171896,398.6588,197.9875,63.3579,44.71028
1171912,400.0949,198.4549,63.44039,44.77782
1171929,401.2134,198.9068,63.5043,44.84298
1171946,402.2523,199.2926,63.56342,44.89849
1171963,403.227,199.6063,63.61865,44.94355
1171984,404.0372,199.9879,63.66441,44.99826
1171998,404.6916,200.3568,63.70126,45.05106
1172018,405.3443,200.981,63.73792,45.14017
1172034,405.8045,201.4669,63.7637,45.20935
1172050,406.0974,201.8929,63.78009,45.26985
1172066,406.4492,202.2549,63.79975,45.32117
1172084,406.8199,202.52,63.82043,45.3587
1172100,407.2928,202.6779,63.84678,45.38103
1172115,407.7717,202.8663,63.87341,45.40764
1172136,408.0814,203.3779,63.8906,45.47978
1172151,408.5109,203.8381,63.91441,45.54452
1172168,408.8806,204.4744,63.93488,45.6338
1172187,409.0929,205.0147,63.94662,45.70938
1172200,409.2066,205.555,63.9529,45.78474
1172215,408.9666,206.1074,63.93964,45.8616
1172234,408.8434,206.5447,63.93282,45.92229
1172253,408.814,206.9579,63.93119,45.9795
1172267,408.7903,207.3879,63.92989,46.03894
1172282,408.697,207.6897,63.92472,46.08056
1172300,408.4368,207.9678,63.91031,46.11888
1172315,408.0183,208.1826,63.8871,46.14842
1172334,407.7411,208.3958,63.87171,46.17772
1172350,407.4785,208.5619,63.85711,46.20053
1172366,407.1626,208.8391,63.83953,46.23854
1172383,406.7842,209.2224,63.81845,46.29102
1172403,406.2591,209.5847,63.78913,46.34053
1172415,405.5813,209.8817,63.7512,46.38105
1172433,404.8499,210.3413,63.71016,46.44364
1172449,404.0617,211.0899,63.66579,46.54528
