Time Stamp(ms),Intersection,,Angle,
,x,y,x,y
586866.8,306.8421,232.1079,56.90365,49.24957
586883.5,306.3878,231.7737,56.86481,49.20874
586897.1,305.9544,231.5188,56.82767,49.17756
586914.2,305.6968,231.6791,56.80556,49.19717
586930.2,305.4142,232.2639,56.78128,49.2686
586948.5,305.3036,232.7574,56.77176,49.32873
586964.9,305.2114,233.4839,56.76384,49.41697
586981.8,305.2175,234.2464,56.76436,49.50924
586998.9,305.263,234.7792,56.76828,49.57351
587014.9,305.3364,235.3589,56.77459,49.64325
587032.7,305.5772,236.0768,56.79529,49.72934
587049.3,305.8994,236.7721,56.82296,49.81242
587065.4,306.3121,237.355,56.85832,49.88185
587082.7,306.7802,237.6411,56.89836,49.91586
587099.4,307.1107,237.718,56.92658,49.92499
587114.6,307.6867,237.4756,56.97565,49.8962
587141.1,308.1738,237.1223,57.01706,49.85416
587158.9,308.555,236.9894,57.04939,49.83832
587170.9,308.884,237.2069,57.07726,49.86423
587186.5,309.2369,238.0342,57.1071,49.96251
587201.8,309.3616,239.8482,57.11763,50.17659
587217.4,309.7489,241.4392,57.1503,50.36281
587232.8,309.8075,243.0149,57.15525,50.5458
587251.3,309.1967,243.0123,57.1037,50.54549
587266.6,308.9166,243.1284,57.08001,50.55893
587284.8,308.7119,243.3721,57.06268,50.58708
587300.8,308.1026,243.8328,57.01101,50.64022
587317.1,307.4287,244.5693,56.95369,50.72493
587333.2,306.7166,246.4328,56.89293,50.9379
587350.5,306.0622,248.2865,56.83691,51.14782
587367.6,305.3918,250.1301,56.77935,51.35474
587382.9,304.7862,251.9071,56.72721,51.55241
587398.4,304.2026,253.8937,56.67682,51.7714
587415.1,303.6456,256.1447,56.6286,52.01697
587431.9,303.0124,258.723,56.57363,52.29499
587448.8,302.2227,260.9151,56.50486,52.52865
587466.6,301.2142,262.4802,56.41666,52.69397
587482.9,300.0987,263.4219,56.31863,52.79284
587499.3,299.2403,264.1327,56.24285,52.86717
587515.3,298.4046,264.8319,56.16878,52.94004
587533.2,297.5177,265.4867,56.08987,53.00806
587549.3,296.402,266.1155,55.99013,53.07319
587566,295.03,267.0725,55.86677,53.17192
587583,293.5445,268.2027,55.73231,53.28794
587599.3,291.8868,269.2357,55.58117,53.39342
587615.3,290,270.7271,55.40771,53.54482
587632.9,288.4798,272.5609,55.26684,53.72949
587649.6,286.9415,274.8881,55.12326,53.96154
587666,285.1519,276.9985,54.95493,54.16975
587683.1,283.0912,278.9944,54.75933,54.36477
587700.5,281.399,281.1541,54.59728,54.57372
587717.4,279.9342,283.6468,54.45595,54.81225
587733.3,278.1714,286.7584,54.28457,55.10611
587753.9,276.3541,289.6206,54.1064,55.37265
587769.8,274.9579,292.0494,53.96846,55.59605
587784.1,274.4086,295.0567,53.91394,55.86918
587801.1,273.5106,297.17,53.82449,56.05883
587817.4,272.8157,298.5453,53.75502,56.18127
587833.9,272.88,299.6021,53.76146,56.27482
587855.6,273.0904,300.6409,53.78251,56.36634
587869.3,273.3149,301.4493,53.80495,56.43726
587887.8,273.2268,301.8997,53.79615,56.47666
587903.1,273.1784,302.2265,53.79131,56.50519
587919.4,273.3536,302.9204,53.80882,56.56563
587934.5,273.5952,303.0845,53.83294,56.5799
587951.9,273.7466,303.8365,53.84803,56.64513
587967,273.72,304.8397,53.84538,56.73182
587987.3,273.8861,306.6059,53.86194,56.88346
588004,275.1152,307.5892,53.98404,56.96735
588021.4,275.796,308.0847,54.05137,57.00949
588038.9,276.2784,308.7454,54.09895,57.06552
588056.6,276.534,308.5208,54.1241,57.04649
588067.8,276.5349,308.4519,54.12419,57.04065
588084.2,276.5873,308.8932,54.12934,57.07803
588100.3,276.6356,309.556,54.13409,57.13404
588117.4,276.6261,309.8484,54.13316,57.15869
588133.7,276.6902,309.7322,54.13947,57.1489
588151.9,276.6736,309.8094,54.13783,57.15541
588168.5,276.5846,310.4631,54.12908,57.21041
588188.2,276.6401,311.5297,54.13454,57.2998
588205.4,277.0558,313.0419,54.17538,57.42581
588223.3,277.624,314.0951,54.23107,57.51306
588235.4,278.3917,314.8752,54.30607,57.57742
588253.4,279.5928,315.9245,54.42288,57.66363
588270.2,280.6664,316.9819,54.52672,57.75009
588291.7,281.9223,318.3289,54.64753,57.85963
588303.6,283.8053,319.804,54.82732,57.97883
588320.5,285.9564,320.7836,55.03077,58.05757
588342.9,288.6789,321.4066,55.28534,58.10745
588356.8,291.3574,322.1014,55.53266,58.16292
588370.3,294.3037,323.0438,55.80115,58.23789
588388.2,298.1288,324.5104,56.14428,58.35393
588407.4,301.748,325.8301,56.4634,58.4577
588422.3,305.4567,326.9697,56.78493,58.54681
588437.4,309.7137,327.4205,57.14733,58.58194
588454.1,312.9851,326.6991,57.4211,58.52569
588471.9,317.9588,328.8042,57.8296,58.68932
588490.5,321.14,328.8162,58.08612,58.69025
588505.4,323.8174,329.2874,58.2992,58.72667
588526,326.2061,329.3404,58.48715,58.73076
588537.8,328.2792,329.2936,58.64866,58.72715
588553.2,330.3969,329.2729,58.81211,58.72555
588570.1,332.1265,329.3963,58.94448,58.73508
588588.6,333.4882,329.6974,59.04798,58.7583
588604.6,334.5739,330.0555,59.13006,58.78587
588621.3,335.7938,330.3135,59.22182,58.80571
588639.1,336.731,330.6752,59.29198,58.83348
588654.8,337.732,331.066,59.3666,58.86344
588675.6,338.5942,331.312,59.4306,58.88227
588689.8,339.6414,331.532,59.50803,58.8991
588704.4,340.7307,331.6648,59.58818,58.90924
588720.8,341.7479,331.5885,59.66269,58.90342
588736.6,342.4874,331.3873,59.71665,58.88803
588755.8,343.0227,331.3498,59.7556,58.88516
588772.8,343.4452,331.468,59.78628,58.8942
588789.6,343.9014,331.4742,59.81934,58.89468
588804.6,344.4097,331.4379,59.85611,58.8919
588824.8,344.9691,331.3599,59.89647,58.88594
588839.6,345.4779,331.338,59.93309,58.88427
588853.8,346.1443,331.3941,59.98095,58.88855
588876.9,346.8107,331.4378,60.02866,58.8919
588887.3,347.5251,331.6032,60.07966,58.90454
588903.6,348.2138,331.7599,60.12868,58.91651
588921.3,348.8872,331.7896,60.17646,58.91878
588937.8,349.4571,331.6318,60.21679,58.90673
588953.5,350.0901,331.4052,60.26147,58.8894
588975.1,350.6565,331.1916,60.30135,58.87306
588987.6,351.161,330.7094,60.33678,58.8361
589005.9,351.1477,330.9858,60.33585,58.8573
589022.1,352.7294,330.7135,60.44646,58.83642
589040.1,353.0929,330.4297,60.47178,58.81463
589054.6,353.6636,330.2585,60.51144,58.80148
589072.5,354.1422,330.0084,60.54463,58.78225
589087.4,354.7842,329.7368,60.58905,58.76133
589109.6,355.2946,329.4044,60.62426,58.73569
589127.3,355.5428,329.154,60.64137,58.71637
589138.8,355.7955,328.987,60.65876,58.70346
589159.3,356.0001,328.7503,60.67283,58.68515
589174.1,356.2388,328.5765,60.68922,58.6717
589190.9,356.4626,328.3954,60.70458,58.65767
589208.1,356.6354,328.0502,60.71643,58.63089
589225,356.8703,327.6765,60.73252,58.60186
589238.1,357.1262,327.3244,60.75003,58.57446
589259.5,357.4916,326.9883,60.77501,58.54827
589272.4,357.7964,326.6455,60.79581,58.52151
589293.3,358.1258,326.2132,60.81826,58.4877
589309.3,358.4352,325.8957,60.83932,58.46284
589322.1,358.7693,325.5387,60.86203,58.43484
589340.1,359.1714,325.1008,60.88931,58.40043
589354.9,359.5282,324.5308,60.91349,58.35553
589371.4,359.9314,323.993,60.94076,58.31308
589388,360.3806,323.4651,60.97109,58.2713
589405.1,360.8818,322.9935,61.00486,58.23389
589421.6,361.3877,322.478,61.03888,58.19292
589437.9,361.7621,321.9175,61.06401,58.14826
589454.5,362.0772,321.2183,61.08512,58.09239
589472.3,362.3488,320.4461,61.1033,58.03048
589490.1,362.5045,319.8269,61.11372,57.98068
589513.4,362.5197,319.0195,61.11473,57.91554
589525.4,362.4904,318.3676,61.11278,57.86277
589539.5,362.4409,317.8365,61.10947,57.81967
589554.8,362.3834,317.5035,61.10562,57.79259
589572.3,362.4969,317.2746,61.11321,57.77395
589588.8,362.6308,317.0467,61.12216,57.75537
589605.6,362.7918,316.481,61.13291,57.70918
589622.9,362.8965,315.9449,61.1399,57.6653
589638.4,363.0834,315.4535,61.15237,57.62498
589656.7,363.3471,315.1614,61.16995,57.60098
589674.8,363.6291,314.9904,61.18872,57.58691
589692.5,363.8475,314.8629,61.20325,57.57641
589709.4,364.0321,314.7179,61.21551,57.56446
589726.5,364.2377,314.6223,61.22917,57.55658
589744.3,364.3568,314.6455,61.23706,57.55849
589762.9,364.3283,314.5811,61.23518,57.55318
589780.8,364.3015,314.4362,61.2334,57.54123
589795.6,364.1539,314.4188,61.2236,57.53979
589810,364.0372,314.4818,61.21585,57.54499
589827.2,363.972,314.5807,61.21152,57.55315
589843.9,363.9394,314.6263,61.20936,57.55691
589861.1,363.925,314.64,61.2084,57.55804
589877.4,363.9236,314.6706,61.20831,57.56056
589892.3,363.9729,314.803,61.21158,57.57147
589909.2,364.1968,315.0187,61.22645,57.58924
589924.9,364.3568,315.0806,61.23706,57.59433
589946,364.4222,315.0123,61.2414,57.58871
589961.9,364.488,314.9257,61.24577,57.58158
589976.2,364.5844,315.0412,61.25216,57.59108
589994.2,364.7253,315.281,61.26149,57.61081
590008.5,364.8989,315.4697,61.27298,57.62631
590026.3,365.0057,315.5957,61.28005,57.63666
590048.1,365.0986,315.6003,61.28619,57.63704
590064,365.2356,315.5217,61.29525,57.63058
590077.4,365.3441,315.4643,61.30242,57.62587
590093.1,365.4332,315.419,61.3083,57.62215
590109.5,365.5113,315.357,61.31346,57.61705
590127.1,365.5769,315.2376,61.31779,57.60724
590142,365.7159,315.1638,61.32696,57.60117
590160.5,365.7829,315.0173,61.33138,57.58912
590177.2,365.8807,314.9068,61.33783,57.58002
590191.8,366.0035,314.772,61.34592,57.56892
590209.4,366.1806,314.6014,61.35758,57.55486
590226.7,366.3868,314.413,61.37114,57.53931
590243.3,366.6194,314.3646,61.38643,57.53532
590259.9,366.8476,314.3465,61.40142,57.53383
590275.5,367.1,314.3154,61.41798,57.53126
590293.6,367.3431,314.1524,61.43391,57.5178
590308.3,367.7463,313.866,61.4603,57.49411
590325.9,368.1269,313.6761,61.48517,57.4784
590342.5,368.5049,313.5583,61.50983,57.46865
590358.9,369.06,313.3047,61.54597,57.44762
590374.9,369.7453,313.0746,61.59047,57.42853
590391.9,370.8277,312.6313,61.66051,57.39168
590408.6,372.2677,312.0362,61.75318,57.34211
590428.1,373.9917,311.3279,61.86341,57.28292
590444.6,376.3369,310.5148,62.01209,57.21475
590462.3,378.6398,309.9395,62.1567,57.16637
590477.7,381.6534,309.5601,62.34386,57.13438
590495,384.2629,309.3214,62.50406,57.11424
590510.1,387.0347,309.3417,62.67236,57.11595
590528.9,389.8399,309.2002,62.84077,57.104
590544.4,392.0837,309.1357,62.97409,57.09855
590559.5,394.351,309.1632,63.10759,57.10086
590575.9,396.4365,309.2524,63.22931,57.1084
590592.4,398.0166,309.4343,63.32085,57.12377
590608.5,399.3661,309.2828,63.39858,57.11097
590625.7,400.657,309.1908,63.47254,57.1032
590642.9,401.5615,308.7205,63.52414,57.06341
590659.1,401.8878,308.2893,63.5427,57.02686
590675.3,402.1692,307.7649,63.5587,56.98231
590697,402.0882,307.1757,63.5541,56.93213
590713.2,401.9851,306.7289,63.54824,56.89397
590725.9,401.7839,306.2173,63.53679,56.8502
590748.7,401.2139,305.8346,63.50433,56.81739
590763.8,400.7077,305.3794,63.47544,56.77829
590780.2,400.0502,305.0353,63.43782,56.74868
590796.8,399.5936,304.7277,63.41165,56.72216
590809.9,399.0787,304.4294,63.38206,56.69641
590826.4,398.6479,304.1068,63.35727,56.66853
590847.1,398.2578,303.7998,63.33478,56.64196
590863.4,398.0207,303.4651,63.32109,56.61295
590878.4,397.8797,303.2265,63.31295,56.59223
590896.8,397.8013,302.8351,63.30842,56.55822
590913.3,397.7375,302.4119,63.30473,56.52135
590928.3,397.7953,301.9653,63.30807,56.48239
590942.6,397.7701,301.5734,63.30661,56.44812
590958.9,397.7303,301.1086,63.30431,56.40741
590981.1,397.4714,300.7058,63.28933,56.37205
590998.6,397.2766,300.3326,63.27806,56.33923
591009.9,396.9968,299.8809,63.26184,56.29943
591027.1,396.6465,299.398,63.24151,56.25679
591044.1,396.2648,298.9719,63.21933,56.21909
591059.9,395.808,298.5374,63.19273,56.18057
591080.8,395.3202,298.0445,63.16428,56.13678
591097.5,394.6953,297.5704,63.12775,56.09456
591112.6,394.0846,297.0823,63.09197,56.051
591130.3,393.4591,296.5426,63.05522,56.00272
591144.5,392.6999,295.8587,63.01049,55.94137
591164.9,391.9106,295.3762,62.96385,55.89797
591177.4,390.9686,294.9152,62.90798,55.85641
591192.6,389.601,294.5664,62.8265,55.82491
591210.5,388.2785,294.1883,62.74726,55.7907
591226.6,386.3286,293.8318,62.62967,55.75839
591245.9,384.5659,293.3914,62.52255,55.7184
591261.8,382.5091,292.992,62.39658,55.68206
591276.9,379.368,292.4395,62.20213,55.63169
591293.9,375.8125,291.7861,61.97897,55.57195
591311.5,371.1571,291.3038,61.68176,55.52774
591328.3,366.4961,290.8384,61.37833,55.48498
591347.2,362.1446,290.5887,61.08964,55.46199
591363.8,357.0281,289.9006,60.74332,55.39853
591384.3,352.91,289.46,60.45905,55.35778
591401.9,348.3388,288.9201,60.13755,55.30775
591423.6,343.1996,288.6396,59.76845,55.28169
591440.9,338.8992,288.6755,59.45319,55.28503
591457,335.668,288.9956,59.21238,55.31475
591472.8,331.1503,289.3023,58.8699,55.34318
591488.4,328.0623,289.1811,58.63183,55.33195
591499.3,325.0512,289.1178,58.39653,55.32608
591512.9,321.0914,288.981,58.08223,55.31339
591532,317.3967,288.7611,57.78389,55.29298
591548.6,314.2362,288.6602,57.52472,55.28361
591565.6,311.6134,288.9176,57.3068,55.30751
591581.4,309.0963,289.5475,57.09521,55.36589
591597.5,306.559,290.1902,56.87945,55.42527
591616.8,304.3648,291.4357,56.69084,55.53984
591632.2,302.7685,292.6487,56.55242,55.65078
591645.8,300.7644,294.003,56.3772,55.77391
591663,298.9965,295.3503,56.22127,55.89564
591680.8,297.3733,296.8774,56.07698,56.03268
591700.1,295.8372,298.3328,55.93944,56.1624
591713.4,294.5759,300.2271,55.82576,56.32994
591731.3,293.0855,301.7374,55.69058,56.46246
591749.4,291.8506,302.7411,55.57785,56.55003
591762.6,290.3833,303.6865,55.44307,56.63214
591780.8,289.0627,304.4698,55.32097,56.69991
591798.4,287.7974,304.7868,55.20328,56.72726
591813.4,286.5488,305.6781,55.08645,56.80396
591832.6,285.2652,306.0996,54.96562,56.84011
591849,283.872,306.8371,54.83366,56.90322
591866.8,282.6273,307.5593,54.71503,56.96481
591881.4,281.3445,308.3391,54.59204,57.03109
591899.1,280.1395,309.335,54.47581,57.11538
591915.4,278.9448,310.2749,54.35994,57.19459
591932.3,277.8618,311.2168,54.25433,57.27362
591946.6,276.9345,312.1311,54.16347,57.35002
591962.8,276.0362,313.2026,54.07507,57.43915
591982,275.0432,313.9609,53.97691,57.50196
592001.8,274.6021,314.4709,53.93315,57.54409
592014.4,273.919,315.1603,53.86522,57.60088
592032.5,273.2779,315.8111,53.80126,57.65433
592050.8,272.8596,316.3679,53.75941,57.69993
592066.4,272.7973,316.7726,53.75318,57.733
592083.9,272.7949,317.1321,53.75294,57.76234
592099.6,272.9341,317.4289,53.76687,57.78651
592114.8,273.0984,317.5651,53.78331,57.7976
592132.1,273.08,317.7012,53.78147,57.80867
592148.3,273.123,317.8654,53.78577,57.82201
592165.6,273.1327,318.081,53.78674,57.83953
592183.3,273.3722,318.3831,53.81067,57.86403
592198.7,273.4806,318.4717,53.8215,57.87121
592213.4,273.7596,318.5287,53.84933,57.87583
592230.7,273.884,318.6589,53.86173,57.88637
592248.1,274.0288,318.7442,53.87615,57.89328
592265.3,274.1812,318.8542,53.89132,57.90217
592282.3,274.3999,319.0529,53.91307,57.91824
592298.2,274.619,319.0825,53.93484,57.92063
592314.5,274.8917,319.0062,53.96189,57.91446
592330.5,275.2503,318.8738,53.99742,57.90376
592348.1,275.6519,318.7165,54.03714,57.89103
592366.9,276.0827,318.6531,54.07965,57.8859
592382.4,276.6604,318.7594,54.13653,57.8945
592399.8,277.2399,318.8162,54.19344,57.8991
592415.4,278.0939,318.802,54.27701,57.89795
592433,279.1076,318.6581,54.37577,57.8863
592450.5,280.5813,318.5197,54.5185,57.8751
592466.4,282.4524,318.6522,54.6983,57.88583
592483.4,285.0061,319.0573,54.94115,57.91859
592500.9,288.0734,319.6433,55.229,57.96589
592518.1,292.2448,320.2366,55.61391,58.01365
592534,297.3294,320.7166,56.07307,58.05219
592560.3,303.9702,321.1379,56.65671,58.08596
592574.8,308.7643,321.2737,57.06712,58.09682
592585.9,313.4048,321.4294,57.45592,58.10927
592599.6,320.0358,321.845,57.99749,58.14248
592615.9,326.3333,322.261,58.4971,58.17565
592633.3,332.6222,322.5504,58.98223,58.19868
592649.8,338.4612,322.8553,59.42075,58.22292
592666.9,344.2025,323.0482,59.84113,58.23824
592683.6,350.0396,322.9888,60.25791,58.23353
592702.6,354.1653,322.9841,60.54623,58.23315
592718.5,358.1904,323.2641,60.82265,58.25537
592733.8,362.5603,323.6952,61.11745,58.28952
592752.6,365.9884,324.1346,61.34492,58.32427
592768.3,369.0232,324.2177,61.54358,58.33083
592786.2,372.619,324.4879,61.77571,58.35216
592810.4,373.8693,324.4143,61.85561,58.34635
592822.8,375.0106,324.5392,61.92818,58.3562
592834.7,376.1803,324.7802,62.00221,58.37519
592852.6,376.8818,324.927,62.04643,58.38676
592868.3,377.2487,325.1453,62.06951,58.40393
592884.7,377.0399,325.1102,62.05638,58.40117
592906.1,376.8385,325.0148,62.0437,58.39366
592919.6,376.4039,324.8361,62.01632,58.37959
592934.6,375.6179,324.6345,61.96666,58.36371
592951.4,374.9714,324.4835,61.9257,58.35181
592968.9,374.3114,324.3897,61.88376,58.34441
592985.4,373.5897,324.1419,61.83778,58.32484
593002.8,373.0923,323.9408,61.806,58.30896
593020,372.7611,323.7235,61.78481,58.29176
593035.9,372.4892,323.5535,61.76739,58.2783
593063.3,372.2817,323.1548,61.75408,58.2467
593078.1,372.1696,323.0049,61.74689,58.2348
593088.7,372.1709,322.8857,61.74697,58.22534
593103.9,372.3929,322.8677,61.76122,58.22391
593119.2,372.5494,322.7421,61.77125,58.21392
593136.2,372.7349,322.6047,61.78313,58.203
593153.9,372.9093,322.2663,61.7943,58.17606
593169.6,373.0567,321.9828,61.80373,58.15347
593186.9,373.187,321.7107,61.81206,58.13175
593203.7,373.3893,321.487,61.82498,58.11388
593220.5,373.5681,321.3078,61.8364,58.09955
593236.9,373.7939,321.0347,61.85081,58.07769
593253.7,373.9392,320.792,61.86007,58.05824
593271,374.019,320.541,61.86515,58.0381
593285.4,374.2178,320.2191,61.87781,58.01224
593303.4,374.1054,320.7838,61.87065,58.05758
593318.9,374.2228,320.7896,61.87812,58.05804
593334.9,374.3301,320.7505,61.88496,58.05491
593352.9,374.4743,320.6956,61.89413,58.05051
593368.6,374.6487,320.7207,61.90521,58.05252
593385.9,374.7767,320.6279,61.91334,58.04507
593402.3,374.8535,320.5559,61.91821,58.0393
593418.3,374.9159,320.4543,61.92218,58.03114
593434.9,374.9682,320.2669,61.9255,58.01608
593456.9,374.9889,320.151,61.92681,58.00676
593468.6,375.0023,319.8148,61.92766,57.97971
593486.2,374.9048,319.4391,61.92147,57.94942
593507,374.7605,319.1181,61.91231,57.92351
593520.5,374.5921,318.7755,61.90161,57.89581
593535.5,374.3788,318.2969,61.88805,57.85704
593552.9,374.0812,317.7995,61.86911,57.81666
593568.4,373.6519,317.2038,61.84175,57.76818
593585.9,372.7903,316.3657,61.78668,57.69976
593602.4,371.7132,315.4951,61.71756,57.6284
593618.9,370.51,314.6231,61.63998,57.55664
593634,368.9288,313.5949,61.53743,57.47167
593652.2,367.3965,312.5535,61.43741,57.38521
593669.6,365.5734,311.1728,61.31756,57.26994
593687.3,364.0491,309.9753,61.21664,57.16938
593703.8,362.35,308.7614,61.10339,57.06688
593719.6,360.5812,307.7299,60.98462,56.97934
593735.3,358.1317,306.7126,60.81866,56.89259
593753.6,355.9405,305.9557,60.66873,56.82778
593769.1,353.3439,304.9951,60.48924,56.74521
593786.6,351.1108,304.081,60.33326,56.6663
593802.5,348.7467,303.1174,60.1665,56.58276
593819.1,346.002,301.9546,59.97074,56.48145
593836.4,343.2869,301.0619,59.77479,56.40331
593852.4,340.3001,300.1196,59.55654,56.32047
593869.5,337.4631,299.1945,59.34658,56.23879
593887.2,335.2298,298.5904,59.17946,56.18527
593902.4,332.6367,298.0027,58.98333,56.13306
593920.2,330.2332,297.3437,58.79954,56.07434
593939.3,327.8974,296.7517,58.61903,56.02144
593954.6,325.4194,296.2579,58.42547,55.9772
593972.3,323.2341,295.9313,58.25299,55.9479
593988.3,321.2301,295.6143,58.09333,55.9194
594011.3,319.1184,295.4134,57.92353,55.90132
594022.1,316.9515,295.4206,57.74761,55.90197
594037.8,314.8293,295.2557,57.57364,55.88712
594052.6,312.6303,294.9423,57.3916,55.85886
594069.5,310.7779,294.7578,57.23684,55.8422
594087.5,308.9414,294.6026,57.08211,55.82818
594103.5,307.0746,294.4615,56.9235,55.81543
594121.8,305.2737,294.2459,56.7692,55.79591
594138.3,303.8178,294.1082,56.64352,55.78344
594153.5,302.2587,294.0332,56.508,55.77665
594171.3,301.0568,294.0577,56.40286,55.77887
594188.3,299.7,294.0533,56.28347,55.77847
594204.6,298.4341,294.0904,56.1714,55.78183
594219.8,297.2191,294.1847,56.06322,55.79037
594235.9,296.0097,294.3283,55.95494,55.80337
594253.9,295.111,294.2815,55.87407,55.79914
594270.3,294.1491,294.3717,55.78715,55.8073
594287.2,293.3534,294.5163,55.71495,55.82037
594303.8,292.7885,294.6704,55.66352,55.8343
594320.1,292.2503,294.8284,55.61441,55.84857
594337.8,292.0821,295.0206,55.59904,55.86592
594353.5,291.7918,295.143,55.57247,55.87696
