Time Stamp(ms),Intersection,,Angle,
,x,y,x,y
416614.6,321.2194,246.8448,58.09248,50.98472
416632.1,321.3787,246.949,58.10522,50.99654
416649.7,321.5689,247.0293,58.12042,51.00565
416665.7,321.6971,247.0716,58.13066,51.01045
416682.5,321.8945,247.0881,58.14642,51.01233
416699.6,322.1074,247.1027,58.1634,51.01398
416715,322.3059,247.1048,58.17922,51.01422
416732.7,322.4353,247.0619,58.18953,51.00935
416750.3,322.5167,247.0043,58.196,51.00282
416766.6,322.6469,246.9548,58.20636,50.9972
416783.2,322.8051,246.8487,58.21893,50.98516
416800.2,322.9991,246.79,58.23434,50.97849
416816.7,323.1803,246.7372,58.24872,50.9725
416833.6,323.3061,246.7181,58.2587,50.97033
416850.5,323.4352,246.767,58.26893,50.97588
416866.2,323.6006,246.8137,58.28203,50.98119
416884,323.8312,246.8304,58.30028,50.98309
416899.3,323.9784,246.8888,58.31192,50.98972
416916,324.0736,246.9267,58.31945,50.99401
416933.1,324.0945,247.0191,58.32109,51.00451
416949.9,324.0892,247.0844,58.32068,51.01191
416967.1,324.1607,247.1074,58.32633,51.01452
416983.6,324.2904,247.1221,58.33657,51.01617
417000.1,324.3988,247.128,58.34513,51.01685
417016.7,324.4812,247.0804,58.35162,51.01146
417033.3,324.5021,246.9895,58.35328,51.00114
417051.3,324.5465,246.9398,58.35678,50.9955
417067,324.7562,246.9801,58.3733,51.00008
417084.1,325.0009,247.0375,58.39257,51.00659
417099.7,325.3822,247.0699,58.42255,51.01026
417116.1,326.1191,246.9745,58.48034,50.99944
417132.9,327.0404,246.9374,58.55233,50.99523
417150.3,328.6554,246.9104,58.67781,50.99217
417167.3,330.4588,246.9214,58.81687,50.99341
417184.5,333.048,247.0438,59.01459,51.0073
417200.3,335.9269,247.163,59.2318,51.02082
417216.8,339.4368,247.4399,59.49292,51.05219
417234.3,343.7237,247.6875,59.80647,51.0802
417251.4,347.7289,247.9379,60.09418,51.10849
417267.9,351.7926,248.2447,60.38105,51.14311
417284.9,356.3556,248.6558,60.69724,51.18942
417302.6,360.8981,249.0144,61.00596,51.22974
417318.4,365.6504,249.5463,61.32264,51.28942
417335.3,369.9679,249.9356,61.6049,51.33299
417352.8,373.9436,250.2701,61.86035,51.37036
417368.9,377.9093,250.5168,62.11098,51.3979
417385.4,381.6099,250.6879,62.34117,51.41696
417402.8,385.6171,251.0341,62.58652,51.45551
417419.1,389.0938,251.3271,62.79616,51.48807
417434.3,392.6738,251.6236,63.00895,51.52098
417451.3,396.4646,251.8701,63.23095,51.54831
417469.3,400.2768,252.3029,63.4508,51.59621
417486.6,403.6176,252.7331,63.64073,51.64372
417502.8,407.1053,253.2251,63.83635,51.69793
417519.3,410.4198,253.6308,64.01975,51.74253
417535.2,413.9184,253.9467,64.21077,51.7772
417551.8,417.3549,254.0548,64.39587,51.78906
417568.2,420.4055,254.1224,64.55811,51.79647
417585.4,423.3616,254.062,64.71351,51.78985
417601.9,426.2931,253.8643,64.86588,51.76817
417618.1,429.1187,253.6796,65.01112,51.74789
417634.6,431.9732,253.5314,65.15626,51.73161
417651.1,434.3813,253.2157,65.27747,51.6969
417667.9,436.3893,252.8259,65.37771,51.65396
417685.1,437.9465,252.3091,65.45493,51.59689
417701.7,439.1199,251.6641,65.5128,51.52547
417717.6,439.8099,250.6873,65.54671,51.4169
417733.5,440.3687,249.5866,65.57412,51.29393
417751.6,440.2975,248.1908,65.57063,51.13704
417768.1,439.6864,246.4115,65.54066,50.93548
417784.9,439.1642,244.5973,65.51498,50.72814
417801.7,438.566,242.5449,65.48551,50.49136
417818.5,437.7953,240.109,65.44744,50.20722
417835,436.9606,237.8433,65.40609,49.93986
417851.6,435.6297,235.4496,65.33988,49.65414
417869.1,434.5325,233.3262,65.28505,49.39784
417885,433.1356,230.8385,65.2149,49.09412
417902.2,431.7168,228.4313,65.14328,48.79666
417919,430.3791,226.2266,65.0754,48.52109
417933.7,428.6728,223.5949,64.9883,48.18818
417951.1,427.0501,220.9853,64.90494,47.85373
417969.2,425.5985,218.315,64.82993,47.50697
417985.4,423.8097,215.1737,64.73691,47.09311
418002.8,422.3098,212.383,64.65842,46.71995
418018.6,420.9975,209.5985,64.58937,46.34243
418034.8,419.5792,206.065,64.51435,45.85571
418052.2,418.3342,202.8731,64.44816,45.4086
418068.3,417.0197,199.6855,64.37791,44.95491
418085.5,415.8912,196.7182,64.31733,44.52604
418101.9,414.9544,193.9074,64.26683,44.11388
418118.8,414.3641,191.5208,64.23492,43.75933
418135.8,413.8268,189.4927,64.2058,43.45471
418153,413.4192,187.5314,64.18367,43.15718
418169.5,412.8506,185.3544,64.15275,42.82349
418186.5,412.2968,183.3528,64.12256,42.51347
418203.3,411.7045,181.3336,64.0902,42.19758
418220,411.0151,179.59,64.05244,41.92225
418236.6,410.1953,177.9238,64.00741,41.65691
418253.1,409.3337,176.2707,63.95992,41.39146
418269.1,408.4395,174.5972,63.91046,41.12049
418286,407.2739,172.9762,63.84573,40.85591
418303.5,406.0088,171.6864,63.77514,40.64385
418320.1,404.5153,170.4718,63.69134,40.44291
418337.7,403.0678,169.2633,63.60965,40.24179
418353.7,401.5357,168.1161,63.52267,40.04976
418370.2,399.4004,167.0055,63.40055,39.86281
418388.7,397.5073,166.1687,63.29141,39.72127
418403.5,395.6266,165.4005,63.18216,39.59084
418420.4,393.2737,164.5426,63.04431,39.44458
418437.2,391.0294,163.7089,62.91159,39.30185
418452.7,388.4108,162.6888,62.75521,39.12642
418470.7,385.5499,161.7399,62.58244,38.96246
418487.1,382.9049,160.8875,62.4209,38.81451
418503.3,380.1487,160.1203,62.25069,38.68082
418520.5,376.8328,159.3797,62.04335,38.55129
418536.9,373.5661,158.8908,61.83627,38.46553
418552.8,369.7102,158.59,61.5882,38.41265
418570.2,366.4049,158.1435,61.37234,38.33404
418586.8,362.6725,157.6894,61.12495,38.2539
418604.6,359.1591,157.3245,60.88847,38.18938
418621.5,356.0096,157.1455,60.67348,38.15769
418637.5,352.7297,156.9756,60.44649,38.12758
418652.8,348.7687,156.4732,60.16806,38.03843
418672.2,344.8623,155.8146,59.88877,37.9212
418687.8,340.2094,155.0515,59.54987,37.78491
418704.7,336.0692,154.4822,59.24247,37.68289
418722.4,331.9065,154.0632,58.9277,37.60764
418737.9,327.9631,153.5531,58.62413,37.51582
418753.8,323.6853,153.0745,58.28874,37.42944
418771.5,319.4808,152.5732,57.95279,37.33877
418788.7,315.8081,151.9434,57.65409,37.22456
418804.8,311.9188,151.2697,57.33231,37.10197
418821.8,307.9107,150.5406,56.99471,36.96888
418838.2,304.2833,149.9019,56.68379,36.8519
418855,300.4477,149.2669,56.34936,36.73525
418873.2,297.273,148.6153,56.06804,36.61518
418888.3,293.7089,148.0261,55.74724,36.50626
418905.5,289.9933,147.8087,55.40709,36.46601
418922.1,286.1651,147.6405,55.0504,36.43483
418942.6,282.7765,147.6012,54.72929,36.42754
418961,279.6887,147.4082,54.43217,36.39173
418974.1,276.8832,147.3831,54.15844,36.38707
418989.5,274.1812,147.623,53.89132,36.43159
419009,272.0635,147.8872,53.67956,36.48055
419027.3,270.3716,148.2887,53.50883,36.55484
419038.6,269.0577,148.8347,53.37529,36.65564
419062.3,267.5951,149.3223,53.22564,36.74545
419073.3,266.6313,150.0257,53.12646,36.87461
419088.9,265.4735,150.7475,53.00669,37.0067
419106,264.3027,151.3229,52.88491,37.11167
419122.8,263.0959,151.7577,52.75867,37.19081
419141.6,262.1544,152.2127,52.65966,37.27345
419159.8,261.4579,152.6035,52.58613,37.34426
419171.8,260.9025,153.3869,52.52731,37.48585
419193.8,260.3144,154.6329,52.46486,37.70992
419210.1,259.7547,155.6762,52.40527,37.89651
419222.6,259.2389,157.3598,52.3502,38.19563
419240.3,258.5979,159.1994,52.28158,38.51968
419257.2,257.8916,160.9888,52.20572,38.83211
419282.1,256.6591,163.3839,52.07272,39.24606
419300.6,255.572,165.4231,51.95475,39.59468
419312.6,254.8272,167.3287,51.87356,39.91732
419325.8,254.178,169.6347,51.80256,40.30372
419342.9,253.2896,172.3923,51.70502,40.76008
419362.5,252.4515,174.8537,51.61263,41.16218
419377.7,251.6779,177.4911,51.52701,41.58763
419393.2,251.079,180.077,51.46051,41.9994
419409.3,250.6239,182.9139,51.40984,42.44509
419428.6,250.277,185.4647,51.37114,42.84048
419443,250.003,188.1517,51.34053,43.25159
419459.1,249.769,191.4891,51.31435,43.7546
419475.6,249.4751,194.9379,51.28143,44.26565
419492.8,249.4046,198.2903,51.27353,44.75406
419508.7,249.764,202.1029,51.3138,45.29964
419527.9,250.1443,205.3875,51.35632,45.76141
419544.9,250.6078,208.7571,51.40804,46.2273
419562.8,250.8339,211.7267,51.43324,46.63144
419578.4,250.9275,214.2867,51.44365,46.97506
419593.4,250.9697,217.1342,51.44834,47.35217
419609.9,250.9171,219.7436,51.44249,47.69305
419627.7,250.7756,222.3638,51.42674,48.03093
419646.9,250.65,224.8044,51.41274,48.34172
419662.4,250.616,227.4302,51.40895,48.67191
419677.5,250.6208,230.7573,51.40949,49.08415
419693.4,250.5173,235.3567,51.39796,49.64298
419710.3,250.3072,239.6757,51.37452,50.15632
419726.8,250.3442,245.1591,51.37864,50.79254
419742.8,250.8737,250.757,51.43766,51.42466
419760.8,251.5975,256.0434,51.51809,52.00597
419779.7,252.2877,262.2973,51.59453,52.67471
419791.5,252.6378,268.8983,51.6332,53.35903
419809.2,252.8338,274.2376,51.65482,53.89693
419825,252.4537,280.6481,51.61288,54.52496
419841.6,251.7163,287.0861,51.53127,55.1368
419858.5,250.957,292.3428,51.44693,55.62286
419874.8,250.0435,296.988,51.34506,56.04258
419892.1,249.1001,300.7772,51.23936,56.37832
419908.8,248.4256,304.6556,51.16351,56.71594
419925.6,248.0074,308.3619,51.11634,57.03302
419942.4,247.6029,312.0414,51.07063,57.34254
419958.8,246.7622,315.8065,50.97534,57.65395
419979.1,245.6798,319.5991,50.85208,57.96233
419995.3,244.9142,322.7233,50.76449,58.21243
420008.5,244.2921,325.8361,50.69309,58.45817
420025.6,243.6785,328.4999,50.62244,58.66577
420042.4,242.9039,330.7295,50.53296,58.83765
420058.9,241.9526,333.066,50.42259,59.01596
420075.4,241.1203,334.9117,50.3256,59.15552
420092.7,240.6554,336.4575,50.27126,59.27153
420113.1,240.5059,337.4129,50.25375,59.34285
420125,240.7688,338.1713,50.28453,59.39924
420143.3,240.8007,338.9997,50.28825,59.46063
420161.1,240.9316,339.1147,50.30356,59.46913
420178.4,241.1845,338.9218,50.3331,59.45486
420193.3,241.6048,338.4423,50.3821,59.41934
420211.3,242.0848,337.3127,50.43796,59.33538
420227.5,242.3931,336.4368,50.47375,59.26999
420245,242.5827,335.6226,50.49574,59.20897
420261.9,242.5687,334.8164,50.49412,59.14835
420278.3,242.5507,334.1229,50.49204,59.09601
420294.3,242.5547,333.1896,50.49249,59.02534
420312,242.6398,332.3265,50.50237,58.95972
420330.3,242.5758,331.5197,50.49495,58.89816
420352.1,242.5497,331.1671,50.49192,58.87118
420364.5,242.5842,330.7342,50.49592,58.83801
420380.9,242.5869,330.1149,50.49623,58.79044
420399.9,242.527,329.4023,50.48928,58.73554
420414.7,242.4585,328.6099,50.48134,58.67429
420428.2,242.4121,327.2405,50.47596,58.56793
420449.4,242.282,325.5551,50.46086,58.43612
420464.5,241.8297,323.1603,50.40828,58.24714
420480.7,241.3628,321.0706,50.3539,58.08056
420496.9,240.9141,318.5462,50.30151,57.87724
420513,240.4215,313.7621,50.24386,57.48552
420531.1,239.9856,307.7552,50.19274,56.98148
420549,239.3135,300.2438,50.11369,56.33141
420564.1,238.4819,293.2121,50.01553,55.7021
420582.1,237.0865,286.308,49.84989,55.06384
420599.1,234.8977,278.3251,49.58778,54.29957
420615.2,232.1959,269.0434,49.26031,53.37383
420642.4,231.2138,264.4054,49.14018,52.89562
420654.6,230.4587,260.2434,49.04743,52.45732
420664.9,229.3156,254.2123,48.90635,51.80632
420679.1,228.4879,248.4178,48.8037,51.16262
420695.4,227.8999,242.0283,48.73052,50.43139
420715.3,227.3984,236.339,48.66793,49.7607
420732.2,227.0706,231.3274,48.62695,49.15411
420747.7,226.7355,226.4789,48.58497,48.55278
420764.7,226.5299,221.7485,48.55918,47.95198
420781.2,226.5449,217.9529,48.56106,47.45959
420797.6,226.4151,213.9151,48.54477,46.92546
420814.3,226.4094,210.403,48.54406,46.45204
420830.8,226.3324,207.2939,48.53439,46.02596
420847.4,226.1321,204.4377,48.50921,45.62865
420863.9,225.9664,202.179,48.48837,45.31043
420880.7,225.8791,199.7678,48.47738,44.96672
420896.8,225.7866,197.7239,48.46573,44.67211
420912.2,225.5298,196.031,48.43336,44.4258
420932.5,225.1754,194.3578,48.38863,44.18031
420946.7,224.6979,193.0476,48.32823,43.98664
420963.8,224.2281,191.8173,48.26867,43.80362
420979.5,223.5252,190.6041,48.17929,43.62202
420995.3,222.7669,189.2315,48.08252,43.41525
421012.5,222.09,187.8036,47.99583,43.19864
421030.7,221.6425,186.4713,47.93836,42.99513
421046.2,221.4036,185.0851,47.90763,42.78196
421061.8,221.1133,183.5959,47.87023,42.55129
421079.6,221.0523,182.3751,47.86236,42.36092
421095.8,221.1914,181.0272,47.88029,42.14937
421113.2,221.2356,179.8242,47.88599,41.95938
421129,221.6003,178.663,47.93293,41.7749
421145.3,222.0598,177.6147,47.99196,41.60744
421161.9,222.6014,176.8584,48.06136,41.48607
421178.9,223.2133,176.4979,48.13954,41.42806
421195,223.7206,175.963,48.20416,41.3418
421211.6,224.0721,175.5727,48.24886,41.27872
421229,224.4416,175.2534,48.29575,41.22702
421249.7,224.9257,174.9939,48.35706,41.18494
421265,225.4386,174.7285,48.42186,41.14184
421279.8,225.8685,174.5435,48.47605,41.11178
421295,226.2232,174.5029,48.52066,41.10518
421312.7,226.663,174.4916,48.57587,41.10334
421333.3,227.0843,174.5005,48.62865,41.10479
421346.6,227.543,174.3806,48.68599,41.08528
421367,227.8765,174.2394,48.7276,41.06228
421384.2,228.0816,174.1898,48.75315,41.0542
421402.2,228.3713,174.1536,48.7892,41.0483
421414.7,228.7315,174.0902,48.83395,41.03797
421429.4,229.2758,174.049,48.90142,41.03126
421447.3,229.719,173.8902,48.95623,41.00536
421467.8,230.1137,173.7106,49.00493,40.97604
421482.6,230.5495,173.5772,49.05861,40.95425
421499.8,231.0113,173.5961,49.11535,40.95734
421515,231.5089,173.713,49.17634,40.97644
421532.9,231.8732,173.7292,49.2209,40.97909
421550.6,232.1732,173.679,49.25754,40.97089
421563.1,232.412,173.7879,49.28666,40.98866
421580,232.6973,173.8131,49.32141,40.99278
421601.5,232.9847,173.6949,49.35637,40.97348
421618.3,233.1228,173.5482,49.37315,40.94952
421629.8,233.1041,173.4121,49.37088,40.92727
421646.4,232.954,173.4614,49.35264,40.93533
421665.1,232.8176,173.5803,49.33605,40.95476
421680.6,232.5348,173.5728,49.30162,40.95353
421698.8,232.2837,173.4742,49.27102,40.93743
421713.9,232.0188,173.4035,49.23869,40.92587
421730,231.7579,173.2955,49.20681,40.9082
421746.9,231.5067,173.1105,49.17607,40.87791
421764.9,231.4308,173.0093,49.16677,40.86132
421780.6,231.5419,172.8956,49.18039,40.84269
421798,231.756,172.7365,49.20658,40.8166
421813.3,231.9942,172.451,49.23569,40.76971
421830.9,232.3627,172.2696,49.28066,40.7399
421847.6,232.7312,172.0625,49.32554,40.70582
421864.9,233.3028,171.8416,49.395,40.66943
421881.8,233.851,171.5473,49.46143,40.6209
421897.9,234.3968,171.3331,49.5274,40.58552
421913.8,235.0452,171.3304,49.60554,40.58507
421931.9,235.5022,171.4312,49.66045,40.60173
421947.7,236.0163,171.5917,49.7221,40.62822
421965.2,236.4802,171.6971,49.77757,40.64561
421982.5,236.8912,171.7859,49.82661,40.66025
421998.5,237.2917,171.7691,49.87432,40.65749
422014.9,237.6585,171.631,49.91793,40.63471
422031.8,238.0317,171.5239,49.96222,40.61703
422048.7,238.3884,171.2791,50.00446,40.5766
422065,238.8678,170.9074,50.06113,40.51512
422087.7,239.5554,170.3712,50.14217,40.42622
422104.8,240.5254,169.7848,50.25603,40.32872
422119,242.4546,169.0389,50.4809,40.20432
422134,244.6402,168.2986,50.73307,40.08037
422152.3,246.9545,167.6061,50.99717,39.96403
422165.3,249.8419,166.8141,51.32251,39.83049
422182.3,252.6203,166.1982,51.63128,39.72627
422203.8,255.3291,165.7346,51.9283,39.64763
422219.9,258.1046,165.474,52.22862,39.60333
422233.9,261.4004,165.3295,52.58004,39.57875
422254,264.3432,165.3458,52.88913,39.58152
422272.1,267.3436,165.4811,53.1998,39.60454
422287.2,270.162,165.916,53.48759,39.67843
422301.3,273.5352,166.9982,53.82695,39.86157
422318.9,276.6942,168.2571,54.13986,40.07342
422335.4,280.4144,170.3395,54.50239,40.42096
422353.3,284.2,172.5632,54.8648,40.78815
422371.5,288.2256,175.4065,55.24319,41.25182
422388,292.9967,179.248,55.6825,41.86797
422403.8,298.6557,183.6779,56.19107,42.56405
422423.8,303.1662,187.0971,56.587,43.0909
422440.7,308.0234,190.932,57.00428,43.67121
422454.3,312.9385,194.1271,57.41722,44.1463
422468.6,319.0855,197.4551,57.92088,44.63314
422487.2,324.322,200.1977,58.33906,45.02831
422503.9,329.7957,203.3843,58.76587,45.48069
422526.7,334.6217,206.1516,59.13366,45.86774
422540.2,338.6334,208.1862,59.43351,46.14892
422554.2,343.2269,210.6743,59.77044,46.4889
422569.2,347.5929,212.9105,60.08449,46.79089
422586.5,351.2698,214.7399,60.34442,47.03544
422604.2,354.0613,216.3602,60.53902,47.25018
422622.9,356.6383,218.2444,60.71663,47.49774
422640,358.1664,219.7745,60.82102,47.69707
422654.3,359.7081,221.567,60.92566,47.92865
422671.1,361.055,223.1884,61.01652,48.13635
422688,361.5294,224.7602,61.0484,48.33612
422706.5,361.7328,225.9526,61.06204,48.48663
422722.4,361.7908,227.262,61.06593,48.65088
422739,361.7895,228.2243,61.06585,48.77091
422752.2,361.8692,229.3425,61.07119,48.90968
422768.7,361.7487,230.285,61.06311,49.02605
422786.6,361.6003,231.1567,61.05315,49.13318
422804.5,361.3131,231.8873,61.03387,49.22263
422819.8,360.8359,232.7557,61.00178,49.32852
422835.6,360.5714,233.7339,60.98396,49.44726
422853.2,360.4105,234.7246,60.97311,49.56693
422869.6,360.1928,236.3977,60.95842,49.76772
422889.5,359.9378,237.7524,60.94119,49.92908
422903.6,359.6652,238.8879,60.92276,50.0635
422920.9,359.4882,240.4201,60.91077,50.24371
422937.6,359.498,241.9173,60.91145,50.41848
422953.1,359.5603,243.7248,60.91566,50.62778
422970,359.4471,245.2037,60.908,50.79765
422987,359.1714,246.6642,60.88932,50.9642
423003.4,358.713,248.1146,60.8582,51.12844
423019.8,358.2052,249.4352,60.82366,51.27697
423035.6,357.4243,250.9206,60.77041,51.44288
423053.3,356.6406,252.4686,60.71679,51.61451
423070.8,355.7386,254.0878,60.65484,51.79267
423086.9,354.2832,256.4175,60.5544,52.04655
423103.8,352.2921,259.8119,60.41596,52.41137
423126.2,350.6701,262.5843,60.3023,52.70492
423138.8,348.2685,266.3009,60.13256,53.09234
423152.3,345.73,270.0836,59.95121,53.47963
423169.3,342.5294,274.5299,59.7197,53.92598
423187.4,340.029,278.3734,59.53659,54.30429
423203.2,337.5607,282.6582,59.35385,54.71798
423218.8,335.1821,287.2717,59.17587,55.15417
423235,332.8101,291.6895,58.99652,55.5631
423256.8,330.6064,294.6836,58.8282,55.8355
423268.8,328.5571,297.4968,58.6702,56.088
423286.1,326.7721,300.1442,58.53139,56.32264
423306.8,325.3067,301.9356,58.41662,56.47979
423319.2,323.8662,303.8938,58.30305,56.6501
423339.3,322.5265,305.673,58.19678,56.80352
423357.4,321.8768,307.4391,58.14501,56.95458
423368.6,321.0868,310.2224,58.08186,57.19018
423392.5,320.0934,313.1465,58.00213,57.4345
423409.1,319.6695,314.8947,57.968,57.57903
423422.8,319.0329,316.7872,57.91662,57.7342
423435.5,318.4457,318.5438,57.8691,57.87705
423451.9,318.3154,320.4326,57.85854,58.0294
423468.9,318.1357,321.8986,57.84396,58.14675
423485,317.5089,323.3164,57.79303,58.25952
423503.3,316.5937,324.613,57.7184,58.36202
423523,315.6862,325.6311,57.64408,58.44209
423538.7,314.7336,326.7505,57.56575,58.52971
423552.1,313.1214,327.6898,57.43242,58.6029
423569.3,310.5592,328.2101,57.21848,58.6433
423586.7,307.9826,328.7686,57.00082,58.68657
423603.9,305.4923,329.1183,56.788,58.71361
423619.8,302.6448,329.5308,56.54165,58.74545
423636.1,299.7847,329.9547,56.29094,58.77811
423653,296.3468,330.4988,55.98518,58.81995
423670.2,293.3816,330.7114,55.71751,58.83626
423686.8,290.445,331.0455,55.44876,58.86187
423703.2,287.3425,331.7234,55.16079,58.91372
423720.7,284.4521,332.289,54.88871,58.95687
423740.8,281.3435,332.7089,54.59194,58.98883
423758.1,278.4792,333.0502,54.31461,59.01476
423769.4,275.3919,333.2092,54.01143,59.02682
423791,272.6684,333.1483,53.74026,59.0222
423804.1,269.8669,333.1047,53.45763,59.01889
423824.9,267.3076,332.9592,53.1961,59.00785
423837.3,264.7701,332.9042,52.93362,59.00367
423854.2,262.6884,332.9179,52.71586,59.00471
423869.7,260.5825,332.8514,52.49335,58.99966
423887.1,259.0798,332.7856,52.33319,58.99465
423904.2,258.0608,332.8104,52.22392,58.99654
423920.8,257.6242,332.7626,52.17693,58.99291
423937.2,257.2394,332.7326,52.13544,58.99063
423953.2,257.4794,332.894,52.16132,59.0029
423973.3,257.6415,332.9944,52.17879,59.01052
423993.4,257.951,333.0168,52.2121,59.01222
424008.5,258.2499,333.0667,52.24423,59.01601
424024.7,258.2617,333.1616,52.2455,59.02322
424040.2,258.2725,333.1691,52.24667,59.02378
424061,258.1393,333.1733,52.23236,59.02411
424079.7,257.7344,333.2327,52.1888,59.02861
424091,257.036,333.3321,52.11348,59.03615
424107.5,256.1795,333.3512,52.02075,59.0376
