Time Stamp(ms),Intersection,,Angle,
,x,y,x,y
475900.7,310.3221,253.1303,57.19855,51.68749
475917.2,310.5926,253.2119,57.22128,51.69647
475934.3,310.6015,253.2689,57.22203,51.70275
475951.1,310.6003,253.2016,57.22193,51.69534
475968.9,310.4965,252.9522,57.21321,51.66788
475985.9,310.4385,252.536,57.20834,51.62196
475999.4,310.5981,251.7801,57.22174,51.53834
476018.3,310.616,251.3427,57.22325,51.48981
476034.9,310.6076,251.0137,57.22255,51.45324
476052,310.7198,250.9792,57.23196,51.44941
476078,310.7136,250.9149,57.23144,51.44225
476094.9,310.5704,250.8979,57.21942,51.44036
476107.3,310.3712,250.9204,57.20269,51.44286
476118.5,309.9527,250.9838,57.16748,51.44992
476134.2,309.2769,251.1801,57.11047,51.47174
476153.8,308.8057,251.3996,57.07063,51.49613
476169.3,308.3471,251.7037,57.03177,51.52987
476184.4,307.8898,251.9865,56.99293,51.5612
476200.1,307.4056,252.2154,56.95172,51.58654
476216.5,306.8953,252.2925,56.90819,51.59506
476233.8,306.4485,252.2908,56.87,51.59487
476251.7,306.1289,252.1698,56.84263,51.58149
476267.2,305.7397,251.7251,56.80924,51.53224
476287.5,305.3966,251.2527,56.77977,51.47981
476300.3,305.1902,250.4797,56.76202,51.39376
476317.7,305.0878,249.6474,56.7532,51.30074
476333.6,304.9546,248.547,56.74172,51.17717
476350.4,304.8677,247.6375,56.73423,51.07454
476368.2,304.9314,246.6359,56.73972,50.96099
476383.6,305.2164,245.3006,56.76426,50.80873
476400.9,305.5954,244.0115,56.79686,50.6608
476417.4,306.0581,242.9708,56.83656,50.54069
476432.6,306.7166,241.8051,56.89293,50.40542
476451.2,307.3221,240.774,56.94461,50.28513
476467.1,308.0156,239.6094,57.00362,50.14853
476485.4,308.7491,238.4013,57.06584,50.00598
476500,309.4196,237.3233,57.12252,49.87809
476519.5,310.0731,236.1707,57.17761,49.74057
476537.6,310.7798,234.8524,57.237,49.58233
476551.4,311.444,233.7769,57.29264,49.45247
476567.9,312.2502,232.7072,57.35995,49.32262
476584.6,312.9557,231.7655,57.41865,49.20774
476600.3,313.5927,230.8748,57.47149,49.09859
476615.4,314.2552,229.8936,57.52628,48.97779
476636.3,314.9702,229.0228,57.58524,48.87009
476652.6,315.6329,228.2345,57.63971,48.77219
476667.3,316.2957,227.5542,57.69402,48.68739
476683.9,316.9066,226.8225,57.74395,48.59587
476701.6,317.5905,225.9671,57.79967,48.48846
476718.5,318.2026,225.2429,57.84939,48.39716
476736.6,318.8185,224.4321,57.89928,48.29455
476752.7,319.2561,223.6453,57.93466,48.19458
476771.6,319.538,222.9338,57.9574,48.10386
476785.6,319.7328,222.1576,57.97311,48.0045
476803,319.9221,221.3676,57.98835,47.90299
476818.7,320.0683,220.5902,58.00011,47.80271
476834.5,320.2365,219.7475,58.01364,47.69357
476852.2,320.3376,218.9101,58.02176,47.58464
476868,320.4665,218.1792,58.03212,47.48921
476883.8,320.6298,217.3703,58.04522,47.38319
476900.7,320.8483,216.6933,58.06275,47.29412
476916.7,321.0526,215.9697,58.07912,47.19859
476933.4,321.3792,215.2547,58.10526,47.10386
476952.3,321.6595,214.7252,58.12766,47.03348
476966.8,321.9563,213.9865,58.15136,46.935
476983.7,322.2574,213.3449,58.17536,46.84917
477001.7,322.4679,212.7839,58.19211,46.77388
477016.6,322.6375,212.254,58.2056,46.70258
477032.8,322.8039,211.5787,58.21884,46.61145
477053.9,322.8167,210.7874,58.21986,46.50426
477067.3,322.788,210.0334,58.21758,46.40173
477087.8,322.6971,209.3001,58.21035,46.30165
477103.3,322.7148,208.7833,58.21175,46.23089
477119,322.6922,208.2557,58.20996,46.15847
477135.3,322.5966,207.6279,58.20236,46.07204
477152.3,322.4812,207.0105,58.19317,45.98678
477166,322.3458,206.2814,58.1824,45.88576
477187.7,322.2746,205.4973,58.17673,45.77671
477204.7,322.2547,204.8588,58.17514,45.68759
477215.8,322.2134,204.2308,58.17185,45.59966
477232.9,322.1791,203.7825,58.16912,45.53671
477249.6,322.1179,203.3216,58.16424,45.47186
477266.4,322.1316,202.7501,58.16533,45.39122
477288,322.1506,202.287,58.16685,45.32572
477304,322.1591,201.7864,58.16752,45.25474
477318.8,322.1539,201.2089,58.16711,45.17265
477335.6,322.1793,200.5146,58.16913,45.07362
477354.1,322.2272,199.9443,58.17295,44.99202
477366.5,322.3235,199.4612,58.18062,44.92272
477383.4,322.4053,199.0738,58.18713,44.86702
477401.7,322.416,198.7534,58.18798,44.82088
477417.5,322.4121,198.4129,58.18768,44.77176
477432.8,322.4488,198.0393,58.19059,44.71777
477450.3,322.5538,197.7081,58.19895,44.66982
477469.4,322.6814,197.4206,58.2091,44.62814
477487.6,322.8553,197.242,58.22292,44.60221
477503.3,322.9792,197.1143,58.23277,44.58365
477521,323.0599,196.9938,58.23917,44.56615
477537.7,323.0961,196.7937,58.24204,44.53703
477550.1,323.1974,196.5937,58.25008,44.5079
477569.6,323.3906,196.5374,58.2654,44.49971
477587.2,323.5656,196.5432,58.27927,44.50055
477603.8,323.7371,196.5194,58.29284,44.49707
477621.3,323.9384,196.3196,58.30877,44.46795
477641,324.1869,196.1661,58.3284,44.44554
477655.9,324.3935,196.0786,58.34471,44.43277
477669.6,324.6309,196.0206,58.36343,44.42429
477685.6,324.8824,195.884,58.38324,44.40432
477706.8,325.181,195.7657,58.40673,44.38701
477720.2,325.6082,195.7274,58.44029,44.38142
477738.2,325.9587,195.785,58.46777,44.38984
477754.8,326.3151,195.9349,58.49568,44.41175
477771.3,326.7947,196.1389,58.53316,44.44157
477789.7,327.403,196.3365,58.58058,44.47041
477805,327.9702,196.5517,58.62468,44.50178
477820.6,328.7317,197.0026,58.68372,44.56742
477838.9,329.4714,197.4254,58.74087,44.62884
477852.9,330.43,197.9854,58.81466,44.70997
477869.9,331.3523,198.6017,58.88536,44.79901
477887.3,332.4437,199.3547,58.96865,44.90742
477904.2,333.5571,200.0527,59.0532,45.00755
477922.1,334.6354,200.7394,59.1347,45.10572
477935.9,335.9789,201.4234,59.2357,45.20316
477952.5,337.2859,202.1511,59.33338,45.30647
477971,338.6949,202.9801,59.43807,45.42371
477988.3,340.2188,204.0226,59.55056,45.57043
478005.7,341.722,205.0859,59.66079,45.71932
478022.4,343.4063,206.2479,59.78346,45.88111
478038.2,345.1672,207.6115,59.91074,46.06979
478053,346.8141,208.9985,60.0289,46.26038
478071,348.6353,210.4245,60.1586,46.45496
478088.7,350.4432,211.7543,60.28634,46.63517
478105.2,352.3813,213.016,60.42218,46.80506
478121.6,354.4757,214.2845,60.56772,46.97478
478136.7,356.2887,215.4634,60.69265,47.13155
478151.7,358.3108,216.7081,60.83085,47.29607
478169.3,360.5606,217.7888,60.98323,47.43809
478188.3,362.4694,218.7325,61.11137,47.56148
478208.3,364.2953,219.5147,61.23299,47.66333
478222.4,366.0028,220.4161,61.34587,47.78019
478237.8,367.5122,221.2001,61.44498,47.88142
478254.3,369.3731,222.2051,61.56632,48.0106
478272.1,371.2396,223.1051,61.68707,48.12573
478288.7,372.9176,224.0076,61.79483,48.24066
478303.7,374.5934,224.983,61.9017,48.36432
478321.5,376.5185,225.9542,62.02354,48.48683
478338.8,378.2499,226.7388,62.13231,48.58538
478353.2,380.3766,227.6579,62.26484,48.70034
478371.1,382.4982,228.7255,62.39591,48.83321
478387.7,384.5324,229.7536,62.52051,48.9605
478404.3,386.5704,230.8511,62.6443,49.09567
478424.8,388.4615,231.9235,62.75826,49.22705
478437.8,390.1937,232.966,62.86187,49.3541
478454.1,391.8737,234.0617,62.96167,49.48692
478472.5,393.6317,235.1504,63.06537,49.61819
478487.7,395.1911,236,63.15674,49.72014
478504.5,396.596,236.7866,63.23858,49.81415
478520.8,397.8966,237.5709,63.31392,49.90751
478536.9,399.2037,238.2079,63.38925,49.98309
478552.2,400.5757,238.8367,63.4679,50.05745
478569.4,401.6647,239.3138,63.53001,50.11372
478586.5,402.7425,239.8388,63.59122,50.1755
478601.9,404.2129,240.5982,63.67431,50.26456
478631.2,405.9259,241.674,63.7705,50.39016
478646.3,406.9857,242.4311,63.82968,50.47816
478653.7,408.0718,243.1979,63.89008,50.56696
478667.7,409.3407,244.0249,63.9603,50.66235
478689,410.8291,244.8859,64.04224,50.76125
478705.3,411.8707,245.5186,64.09929,50.83366
478718.8,412.8816,246.0981,64.15443,50.89979
478735.2,413.8154,246.7679,64.20518,50.97598
478753.3,414.5801,247.2952,64.2466,51.0358
478769.3,415.7042,248.3191,64.30727,51.1515
478790.3,416.5374,248.7611,64.35206,51.20127
478805.2,417.2343,249.1685,64.38941,51.24705
478824.9,417.9351,249.5899,64.42687,51.29429
478837.8,418.568,249.8768,64.46062,51.32641
478854.6,418.7237,249.9804,64.4689,51.33801
478873.3,419.0547,249.6911,64.4865,51.30564
478885.9,419.208,250.1299,64.49465,51.35471
478906.4,419.2363,249.7533,64.49615,51.31259
478922.8,419.2393,249.8641,64.49632,51.325
478936.5,419.1091,250.0085,64.4894,51.34114
478951.8,419.0032,250.1,64.48377,51.35137
478969.7,419.0002,250.3096,64.48361,51.37477
478986.2,418.8699,250.6489,64.47668,51.41262
479002.7,418.7924,250.827,64.47256,51.43246
479019.4,418.6932,251.099,64.46728,51.46272
479036.1,418.7334,251.4128,64.46941,51.49759
479053.3,418.7899,251.7255,64.47243,51.53228
479073.1,418.6839,252.1104,64.46679,51.57492
479090.6,418.6833,252.4311,64.46675,51.61037
479103.1,418.6943,252.8519,64.46734,51.65682
479119.4,418.6424,253.0451,64.46458,51.67811
479139.4,418.5504,253.348,64.45967,51.71145
479154.3,418.4646,253.556,64.45511,51.73432
479169,418.2391,253.834,64.44309,51.76484
479186.4,418.0001,254.2973,64.43034,51.81562
479204.1,417.5421,254.7142,64.40588,51.86122
479219.4,416.6886,255.2955,64.36017,51.92464
479236.7,415.6205,255.7735,64.30276,51.97667
479259.8,415.032,256.2303,64.27102,52.02626
479273.6,414.1085,256.7658,64.22107,52.08426
479291,412.6349,257.2345,64.14099,52.13491
479308,411.187,257.6041,64.06186,52.17477
479323.5,409.4294,258.1028,63.9652,52.22843
479341.5,408.0021,258.6861,63.8862,52.29104
479357.3,406.2341,259.1717,63.78773,52.34302
479373.8,404.1831,259.4429,63.67263,52.372
479390.8,402.025,259.4986,63.5505,52.37794
479407.7,399.8984,259.5372,63.42913,52.38206
479425,397.5915,259.5899,63.29628,52.38769
479440.7,394.8783,259.6303,63.13846,52.39201
479456,392.1508,259.6539,62.97806,52.39452
479474.5,389.361,259.7261,62.81215,52.40222
479491.2,386.2271,259.5338,62.62352,52.3817
479509.9,382.6867,259.9052,62.4075,52.4213
479524.3,378.5189,260.0814,62.14914,52.44007
479540.2,374.7126,260.5427,61.90927,52.48912
479555.6,370.7773,261.1306,61.65725,52.55149
479571,365.0371,261.7371,61.28213,52.61563
479589.2,359.5489,262.3155,60.91489,52.67663
479606.9,354.3571,262.596,60.55951,52.70615
479623.1,348.6963,262.6293,60.16292,52.70965
479639.1,343.7227,262.4995,59.8064,52.696
479655.7,337.7191,262.8506,59.36563,52.73291
479672.3,332.2189,262.6741,58.95152,52.71437
479697.9,326.8856,262.8894,58.54025,52.73698
479706.6,321.8903,263.2106,58.14609,52.7707
479721.7,316.6813,263.4462,57.72555,52.79539
479737.2,311.4701,263.6138,57.29482,52.81293
479754.2,306.8132,263.6803,56.90118,52.81989
479770.3,302.1156,263.8293,56.49551,52.83547
479791.8,297.7266,264.022,56.10848,52.85561
479805,293.7664,264.0481,55.75245,52.85834
479820.3,288.0978,264.39,55.23129,52.89401
479850.1,285.217,265.0193,54.96107,52.95953
479864.8,281.966,265.8732,54.65172,53.04811
479877,279.2382,266.6489,54.38845,53.12827
479886.4,275.1633,267.7037,53.98881,53.23679
479904.1,271.6067,268.6841,53.63359,53.33716
479920.3,268.1108,269.4415,53.27853,53.41438
479936.7,265.3198,270.1027,52.99075,53.48157
479954.5,262.9043,270.7784,52.73855,53.55
479970.6,260.8169,271.4191,52.51823,53.61469
479987.5,258.5011,271.9984,52.2712,53.67302
480005.8,257.1275,272.3106,52.12336,53.70437
480021.6,255.8921,272.2589,51.98955,53.69919
480039,254.6437,272.226,51.85351,53.69589
480053.8,253.4143,272.0483,51.71874,53.67803
480071.7,252.8379,271.7356,51.65527,53.64657
480092,252.6883,271.5296,51.63877,53.62583
480107.8,252.4921,271.3545,51.61711,53.60818
480122.7,252.4761,271.1054,51.61535,53.58305
480137.3,252.4972,270.8833,51.61768,53.56061
480153.6,252.9342,270.6616,51.66589,53.53819
480172.3,253.446,270.5033,51.72223,53.52217
480188.8,254.2043,270.347,51.80544,53.50634
480205.4,254.6774,270.14,51.8572,53.48535
480221.5,254.998,269.9297,51.89221,53.46401
480242.5,255.1471,269.7843,51.90847,53.44924
480254.5,255.4058,269.6627,51.93665,53.43688
480271.1,255.9184,269.7444,51.9924,53.44518
480289.9,256.3505,269.7256,52.03929,53.44328
480305.3,256.7953,269.6637,52.08746,53.43699
480321.3,257.3321,269.6625,52.14544,53.43686
480339.1,257.9533,269.8069,52.21236,53.45154
480355.1,258.4743,269.9852,52.26833,53.46964
480371.6,258.863,270.1165,52.30999,53.48297
480392.6,259.0523,270.1131,52.33025,53.48262
480408.8,258.9715,270.0294,52.32161,53.47413
480423.8,258.9477,270.0149,52.31905,53.47266
480438.6,258.8621,270.0684,52.30989,53.47808
480454.6,258.6673,270.0858,52.28902,53.47985
480472.3,258.4933,269.9173,52.27037,53.46275
480492.7,258.288,269.5355,52.24832,53.42395
480506.6,258.2351,269.1589,52.24265,53.3856
480522.1,258.4559,268.6758,52.26635,53.33632
480545.8,258.757,268.3126,52.29863,53.29919
480556.1,259.0043,267.8913,52.32511,53.25603
480574.5,259.2636,267.4256,52.35284,53.20823
480590.9,259.5899,266.9848,52.3877,53.16289
480607.8,260.204,266.6926,52.45313,53.13278
480624.2,260.7374,266.3704,52.5098,53.09952
480641,261.1503,265.9173,52.55357,53.05268
480657.5,261.4499,265.456,52.58528,53.00488
480675.8,261.6956,264.9057,52.61125,52.94772
480693.5,261.9603,264.5484,52.63919,52.91052
480706.8,262.3558,264.0487,52.68087,52.8584
480727.1,262.6066,263.631,52.70727,52.81474
480741.2,262.8654,263.156,52.73446,52.76497
480762.7,263.0847,262.5743,52.75749,52.70387
480772.2,263.5445,261.8727,52.80568,52.62994
480790.2,264.021,261.2283,52.8555,52.56184
480808.1,264.5643,260.5609,52.91218,52.49106
480822.8,265.1527,259.7153,52.9734,52.40107
480842.8,265.8597,258.653,53.04672,52.28748
480858,266.5424,257.6426,53.11728,52.17892
480872.9,267.8045,256.1271,53.24714,52.01507
480893.4,269.1428,254.6841,53.38396,51.85793
480908.6,270.392,253.2254,53.51089,51.69796
480926.4,271.627,251.7158,53.63565,51.53121
480944.3,272.8803,249.8573,53.76149,51.32423
480959.3,273.9729,248.2168,53.87059,51.13996
480973.8,275.285,246.3726,54.00085,50.93105
480994.1,276.6366,244.6706,54.13419,50.73655
481011.2,278.0691,242.9232,54.27459,50.53519
481030.3,279.334,241.2922,54.39776,50.34566
481043.7,280.5918,239.7245,54.51952,50.16206
481059.3,281.9534,238.0825,54.65051,49.96824
481074.6,283.7668,235.9224,54.82366,49.71085
481099.5,285.5501,233.7289,54.9925,49.44666
481114.9,287.3806,231.4781,55.16435,49.17257
481126.7,289.1255,229.4321,55.3268,48.92077
481149.3,291.0845,227.1655,55.5076,48.63881
481160.6,292.9456,225.3629,55.67784,48.4123
481175,294.8575,223.4563,55.8512,48.17051
481190.9,296.507,221.3555,55.99953,47.90144
481209.9,297.9114,219.1609,56.12494,47.61731
481226.3,299.229,217.1435,56.24185,47.35338
481242.9,300.5481,215.142,56.35818,47.08889
481260.9,301.5301,213.4121,56.44433,46.85816
481276.3,302.2746,211.7877,56.50938,46.63968
481292.9,302.7589,210.1977,56.55159,46.42411
481310.1,303.2014,208.8322,56.59006,46.23759
481325.4,303.5613,207.7018,56.62129,46.08223
481341.9,303.8962,206.5493,56.65031,45.92293
481357.6,304.0349,205.7011,56.66232,45.8051
481373.6,304.268,204.7513,56.68247,45.67255
481391.3,304.5151,203.8587,56.70382,45.54742
481406.8,304.7307,202.9843,56.72242,45.4243
481423.1,304.8297,202.0567,56.73096,45.29309
481441.9,304.8442,201.3701,56.73221,45.19558
481456.4,304.8002,200.7932,56.72842,45.11339
481477.3,304.6326,200.4036,56.71396,45.05776
481490.5,304.4974,200.0447,56.70229,45.0064
481506.8,304.3899,199.724,56.693,44.96043
481526.1,304.2056,199.2738,56.67707,44.89579
481540.2,304.208,198.6786,56.67728,44.8101
481557.3,304.4164,197.9919,56.69529,44.7109
481576.2,304.5364,197.3032,56.70565,44.6111
481591.4,304.5285,196.7354,56.70497,44.52854
481607.7,304.4511,196.329,56.69829,44.46931
481624.3,304.4073,196.0828,56.69451,44.43338
481641.5,304.4228,195.7218,56.69584,44.38059
481657.8,304.4744,195.1625,56.7003,44.29863
481673.6,304.5938,194.4473,56.71061,44.1935
481698.2,304.6822,194.0466,56.71824,44.13442
481706.7,304.7591,193.5616,56.72487,44.06276
481723.6,304.8623,192.9011,56.73376,43.9649
481747,304.9577,192.3621,56.74199,43.8848
481762.6,305.0136,191.9623,56.7468,43.82523
481774.1,305.0335,191.6418,56.74852,43.7774
481789.5,305.0175,191.385,56.74715,43.73903
481807.8,305.0142,191.1161,56.74686,43.69879
481824.9,304.9163,190.8997,56.73842,43.66638
481841.4,304.7949,190.668,56.72795,43.63161
481857.7,304.552,190.4991,56.707,43.60626
481873,304.2632,190.3751,56.68206,43.58762
481893.1,304.012,190.2895,56.66033,43.57475
481906.9,303.6477,190.2827,56.62878,43.57375
481927.3,303.1992,190.1925,56.58987,43.56017
481941,302.6144,190.1063,56.539,43.5472
481963.8,301.8608,190.117,56.47326,43.54882
481978.7,301.2343,190.0816,56.41842,43.54349
481994.5,300.6017,190.0263,56.3629,43.53516
482006.5,299.8974,189.8642,56.30089,43.51075
482024.3,299.1667,189.6754,56.23634,43.48228
482041.7,298.3756,189.5121,56.16621,43.45763
482062.8,297.6362,189.3459,56.10043,43.43254
482078.8,296.8347,189.1166,56.02887,43.39788
482094.7,296.0976,188.7427,55.96283,43.34127
482108.1,295.2517,188.095,55.88676,43.24297
482128.4,293.909,187.1668,55.76539,43.10155
482144.9,292.29,186.4885,55.61804,42.99777
482162.8,290.4977,185.793,55.45361,42.891
482176,288.1877,184.8481,55.23966,42.74537
482194.2,285.9785,183.6886,55.03286,42.56571
482212.4,283.682,182.6467,54.8156,42.40338
482225.9,280.9574,181.5205,54.55478,42.22697
482241.8,278.3412,180.4759,54.30115,42.06244
482262.6,275.4993,179.1185,54.02205,41.84739
482277.8,272.2538,177.4129,53.69867,41.57509
482297,270.103,176.9819,53.4816,41.50592
482309.3,267.3745,176.1425,53.20298,41.37078
482324.4,264.9261,175.8868,52.94984,41.3295
482345.7,262.5657,175.3702,52.70297,41.24593
482357.1,259.9864,174.9058,52.42996,41.17064
482374.3,257.8372,174.8095,52.19987,41.155
482391.2,255.5386,174.5967,51.95111,41.12042
482407.5,253.0886,174.4203,51.6829,41.09172
482424.6,251.0821,174.6342,51.46085,41.12653
482441.9,249.1941,174.792,51.24992,41.15215
482458.9,247.519,174.9693,51.06114,41.18094
482475.3,245.9006,175.0874,50.87727,41.2001
482492.4,244.4323,175.2754,50.70919,41.23058
482511.1,243.2925,175.5431,50.57789,41.27393
482528.7,242.6252,176.0005,50.50068,41.34785
482544.2,242.3865,176.7686,50.47299,41.47164
482563.5,242.2378,177.6255,50.45573,41.60917
482582.8,242.0988,178.5541,50.43958,41.75753
482595.9,242.1374,179.77,50.44406,41.95079
482612.4,242.4684,181.1868,50.48249,42.17451
482628.9,243.2683,182.9535,50.5751,42.45126
482646.5,244.105,184.8026,50.67156,42.73834
482662.9,245.173,186.9299,50.79413,43.06533
482678.8,246.1809,189.1398,50.90923,43.40139
482696.3,247.2572,191.2425,51.0315,43.71771
482713,248.4753,193.5698,51.1691,44.06398
482729.6,249.4601,195.8228,51.27975,44.39537
482746.8,250.3784,198.0561,51.38246,44.7202
482766.3,251.227,200.2546,51.47696,45.03645
482779.5,252.0719,202.3085,51.57066,45.32877
482796.4,253.1357,204.8349,51.68809,45.68425
482813.5,254.1576,207.0432,51.80032,45.99131
482830.7,255.4645,209.3965,51.94305,46.31482
482845.9,257.2176,211.74,52.13308,46.63324
482860.6,258.8467,213.8238,52.30825,46.91325
482880.2,260.3297,215.7595,52.46649,47.17078
482897,261.6706,217.5861,52.6086,47.41151
482913.4,263.1957,219.3481,52.76913,47.64167
482927.4,265.2551,221.5784,52.98403,47.93011
482946.8,267.1949,223.6549,53.18451,48.19581
482961.4,269.3074,225.7231,53.40073,48.45773
482981.8,271.6167,227.5887,53.63461,48.6917
482994.9,274.0004,229.4725,53.87333,48.92576
483011.4,276.8127,231.3795,54.1515,49.1605
483028.2,280.5947,233.8485,54.51979,49.46114
483048,283.5118,235.635,54.7994,49.67639
483064.1,286.9536,237.4329,55.12439,49.89111
483080.3,290.3047,239.1619,55.43583,50.09583
483095.6,293.8665,240.9167,55.76153,50.30182
483110.3,297.9668,242.7079,56.12987,50.51026
483128.7,301.4024,244.0376,56.43316,50.6638
483145.8,305.0627,245.2342,56.75104,50.80114
483163,308.6535,246.5184,57.05774,50.94764
483178.7,312.2883,247.7421,57.36312,51.08637
483194.6,316.7265,248.8408,57.72924,51.21023
483212.6,320.505,249.6313,58.03521,51.29893
483228.2,324.1547,250.239,58.32586,51.36689
483245.3,328.317,250.9444,58.6516,51.44553
483262.8,332.408,251.8056,58.96593,51.54116
483279.7,335.9376,252.4998,59.2326,51.61796
483293.6,339.5024,252.8718,59.49777,51.65901
483311.1,342.3352,253.0919,59.70556,51.68326
483327.3,345.2954,253.4904,59.91997,51.7271
483344.6,348.2705,253.921,60.1327,51.77439
483364.4,351.079,254.3145,60.33103,51.81751
483379.7,353.4638,254.5104,60.49757,51.83894
