Time Stamp(ms),Intersection,,Angle,
,x,y,x,y
818894.1,288.4792,253.282,55.26679,51.70419
818912.3,287.3366,252.9348,55.16024,51.66596
818928.8,286.0572,252.3358,55.04026,51.59984
818946.5,284.8186,251.6729,54.92342,51.52645
818962.7,283.9853,251.1667,54.84442,51.47026
818978.3,283.7928,250.9874,54.82613,51.45031
818994.2,283.9071,250.3355,54.837,51.37767
819011.4,284.4455,250.0501,54.88809,51.34579
819029.7,285.0658,249.2696,54.94679,51.25839
819046.3,285.8327,248.6427,55.01913,51.18794
819062.6,286.5574,248.1147,55.08726,51.12845
819078.8,287.3628,247.6732,55.16269,51.07858
819094.5,288.2577,247.2627,55.24617,51.03212
819111.1,289.1328,247.101,55.32747,51.01378
819126.4,289.5382,247.3169,55.36502,51.03826
819147.1,289.3664,247.5576,55.34912,51.0655
819163,289.3575,247.5436,55.34829,51.06392
819179.9,289.2314,247.7608,55.33661,51.08848
819195.6,288.8272,248.2774,55.29912,51.1468
819211.7,288.3927,248.7726,55.25874,51.20256
819229.8,287.7111,249.3472,55.19522,51.26709
819246.8,287.2225,249.8485,55.14957,51.32325
819262.8,286.681,250.499,55.09885,51.39591
819279.8,286.1361,251.2063,55.04768,51.47465
819294.9,285.4754,252.214,54.98546,51.58637
819312.8,284.5454,253.6462,54.89756,51.74422
819329.5,283.4816,254.8392,54.79652,51.87488
819347.1,282.2722,256.1435,54.68105,52.01685
819363.6,281.0208,257.8633,54.56088,52.20267
819381.3,279.7974,259.654,54.4427,52.39453
819397.1,278.4794,261.3467,54.31462,52.57436
819411.7,276.6616,263.5337,54.13665,52.80455
819428.1,274.6346,265.8727,53.93639,53.04807
819446.8,272.5572,268.0929,53.72911,53.2767
819461,270.009,270.8528,53.47206,53.55753
819480.9,267.7551,273.0264,53.24206,53.7761
819497.4,265.3803,274.703,52.99702,53.94318
819513.6,262.2212,276.2716,52.6667,54.09827
819529.4,258.7183,277.8392,52.29449,54.25212
819546.9,255.2517,279.4331,51.91987,54.40739
819564.6,252.1824,280.9455,51.58289,54.55363
819580,248.9748,282.2623,51.22529,54.68011
819595.7,245.3206,283.488,50.81102,54.79714
819614.4,241.7191,285.1646,50.39542,54.95613
819630.9,237.9184,285.2446,49.94878,54.96368
819647.9,234.7794,285.4024,49.57354,54.97858
819664.7,231.9043,285.2076,49.2247,54.96019
819681.7,228.7249,285.502,48.83313,54.98797
819699.3,225.986,285.8693,48.49083,55.02258
819714.9,223.102,286.4925,48.12533,55.08116
819739.4,220.0166,287.4084,47.72847,55.16695
819752.8,218.6124,288.1028,47.54581,55.23175
819764.4,217.1158,289.5758,47.34974,55.3685
819781.3,215.5439,290.6957,47.14222,55.47184
819798.8,214.4226,291.4578,46.99319,55.54186
819814,214.099,291.8326,46.95002,55.5762
819832.3,214.0623,291.8347,46.94513,55.5764
819848.7,214.2744,292.0346,46.97343,55.59469
819866.4,214.6231,292.1352,47.01989,55.60389
819881.9,214.8418,292.1331,47.049,55.6037
819895.6,215.8594,292.0769,47.18399,55.59856
819914.5,216.4326,292.4217,47.25974,55.63006
819931.9,216.9195,292.5303,47.32392,55.63998
819948.3,217.3613,292.7655,47.382,55.66143
819964.4,217.6652,292.9803,47.42189,55.681
819980.5,218.463,293.0773,47.5263,55.68983
819997.6,219.2274,293.0754,47.62596,55.68966
820015.8,219.7803,292.8146,47.69782,55.6659
820032,219.9579,292.6384,47.72086,55.64985
820049.8,220.2601,292.416,47.76001,55.62954
820066.2,221.2533,292.1683,47.88828,55.60691
820082.4,222.8553,291.9324,48.09383,55.58534
820099.6,224.8555,291.8811,48.34818,55.58065
820115.9,227.8484,291.8398,48.72409,55.57687
820136.8,230.9721,291.9798,49.11053,55.58968
820151.4,234.5268,292.2457,49.54309,55.61399
820166.2,239.0912,292.0751,50.08749,55.5984
820183.5,242.9046,292.0491,50.53304,55.59602
820198.5,246.8721,292.132,50.98782,55.6036
820214.1,251.5207,292.373,51.50957,55.62563
820230.3,256.1102,292.4193,52.01323,55.62984
820248.9,260.5427,292.4219,52.48912,55.63008
820268,264.3732,292.2928,52.89226,55.6183
820280.4,268.171,291.7729,53.28469,55.57075
820297.4,271.4883,290.895,53.62166,55.49018
820317.3,275.2374,290.0174,53.99614,55.40932
820336.1,278.3174,289.148,54.29882,55.32889
820350.3,280.3109,288.6596,54.49239,55.28355
820363.7,282.4552,288.224,54.69857,55.24303
820379.8,284.3284,287.8202,54.87698,55.2054
820398.4,286.0134,287.332,55.03614,55.15981
820414.8,287.6483,286.7424,55.18936,55.10461
820431.3,289.2126,286.32,55.33487,55.06497
820448.5,290.6208,285.9169,55.46495,55.02706
820463.9,292.062,285.7166,55.5972,55.00819
820480.9,293.4256,285.582,55.72151,54.99551
820498.7,294.7902,285.4668,55.84512,54.98465
820514.3,296.1632,285.2715,55.96871,54.96622
820532.3,297.2874,285.1022,56.06932,54.95023
820548.8,298.3485,284.9244,56.1638,54.93342
820566.1,299.4885,284.87,56.26479,54.92828
820582.3,300.7309,284.8504,56.37425,54.92643
820597.8,302.1572,284.7778,56.49915,54.91956
820613.9,303.5102,284.2812,56.61686,54.87251
820631,304.7735,283.7683,56.72611,54.82381
820648.3,305.8587,283.2303,56.81946,54.77259
820664.1,307.1776,282.9352,56.93229,54.74443
820682.4,308.809,282.78,57.07091,54.72962
820700.6,310.0646,282.5656,57.1769,54.70913
820713.1,311.429,282.2456,57.29138,54.67851
820730.9,312.4824,282.1048,57.3793,54.66502
820747.6,313.1628,282.1209,57.43585,54.66656
820763.9,313.8855,282.1416,57.49573,54.66855
820784.1,314.4342,282.109,57.54107,54.66542
820800.1,314.8826,281.8937,57.57803,54.64478
820817.3,315.1241,281.8102,57.5979,54.63677
820830.1,314.9381,281.7975,57.5826,54.63556
820849.6,314.7508,281.6295,57.56717,54.61943
820864.1,314.3271,281.3501,57.53223,54.59258
820880.3,314.1589,281.1302,57.51833,54.57142
820897.7,313.7237,280.7606,57.48234,54.5358
820915.8,313.2379,280.3768,57.44208,54.49876
820932.4,312.8679,280.0369,57.41135,54.46589
820949.4,312.5378,279.7253,57.3839,54.43572
820965.6,312.2302,279.3616,57.35828,54.40044
820986.3,311.9769,279.0992,57.33716,54.37495
820999.4,311.6278,278.9317,57.30801,54.35867
821013.7,311.2399,278.7759,57.27556,54.3435
821031.4,310.8217,278.6977,57.24052,54.33589
821048.7,310.2688,278.97,57.19408,54.3624
821065.4,309.8328,279.4182,57.15737,54.40593
821082,309.275,280.174,57.11031,54.47915
821098.3,308.6657,280.6651,57.05878,54.5266
821114.7,308.0674,280.8689,57.00803,54.54625
821130.8,307.291,281.032,56.94196,54.56196
821148.3,306.6015,281.2399,56.88308,54.58197
821165.3,306.0487,281.3534,56.83575,54.59289
821181,305.5542,281.2459,56.79331,54.58255
821197.8,305.1357,281.2154,56.75732,54.57961
821214.1,304.8958,281.039,56.73666,54.56263
821231.7,304.661,280.8943,56.71641,54.54869
821251.2,304.5329,280.8084,56.70535,54.54041
821267.3,304.4264,280.812,56.69615,54.54076
821284.3,304.3768,280.8679,56.69188,54.54615
821299.3,304.3358,280.9911,56.68833,54.55802
821314.3,304.4086,281.3393,56.69462,54.59153
821334.6,304.3969,281.742,56.69361,54.63023
821350.3,304.3017,282.2009,56.68539,54.67423
821368.2,304.2202,282.3926,56.67833,54.69258
821384.8,303.9127,282.5794,56.65173,54.71045
821401.6,303.5694,282.8217,56.62199,54.73361
821418.8,302.94,283.1628,56.56734,54.76616
821435.2,302.1293,283.3861,56.49671,54.78743
821452.1,300.7845,283.5847,56.37896,54.80634
821467.9,298.9681,283.9204,56.21876,54.83826
821483.8,296.15,284.5983,55.96753,54.90256
821499.9,293.2166,285.2601,55.70251,54.96515
821516.9,289.2331,285.6864,55.33677,55.00536
821534.4,285.0443,286.1098,54.94476,55.04521
821555.5,281.5547,286.3228,54.61224,55.06522
821568.9,277.5285,286.8315,54.22171,55.11296
821584.8,273.3248,287.2227,53.80594,55.14959
821602.4,269.6029,287.3824,53.4308,55.16452
821620.9,265.5598,287.4422,53.01564,55.17011
821634.1,262.1843,287.3574,52.66281,55.16218
821649.8,258.4619,287.4679,52.26699,55.17252
821668.4,255.3124,287.7957,51.92648,55.20312
821685.5,252.3427,288.0462,51.60061,55.22648
821703.9,250.0688,288.1725,51.34789,55.23824
821719.3,247.9746,288.0753,51.11264,55.22919
821734.6,245.8076,287.7397,50.86666,55.1979
821750.8,244.3285,287.1949,50.69727,55.14699
821768.6,243.2385,286.8627,50.57165,55.11589
821784.9,242.5771,286.3958,50.4951,55.07208
821799.6,242.0286,285.9452,50.43142,55.02972
821815.9,241.6468,285.44,50.38699,54.98212
821832.4,241.6174,284.7182,50.38357,54.91392
821849.7,241.3642,283.9365,50.35406,54.83979
821867.2,241.1407,283.3293,50.32798,54.78202
821882.9,240.7231,282.6384,50.27918,54.71609
821902.4,240.1333,282.0257,50.21007,54.65744
821918.1,239.4103,281.3993,50.12509,54.5973
821932.5,238.4656,280.7719,50.01359,54.53689
821950.5,237.7594,280.2515,49.9299,54.48665
821966.8,236.9872,279.746,49.83806,54.43773
821983.4,236.0758,279.0387,49.72921,54.36908
821999.9,235.3157,278.4216,49.63805,54.30899
822015.5,234.7529,277.8232,49.57034,54.25056
822033.2,234.2328,277.4121,49.5076,54.21032
822048.9,233.9788,276.8393,49.4769,54.15412
822066.1,233.8017,276.1284,49.45546,54.08416
822082.8,233.7583,275.4783,49.45022,54.01997
822098.9,233.9554,274.9283,49.47406,53.96552
822115.3,234.0829,274.3518,49.48948,53.90829
822132.2,234.2434,273.696,49.50888,53.84299
822148.4,234.3437,272.9998,49.52098,53.77345
822165.6,234.2896,272.1702,49.51446,53.69028
822184.8,234.2288,271.6674,49.50711,53.63971
822199.1,233.9705,271.2479,49.47589,53.59742
822215.1,233.7183,270.8944,49.44537,53.56173
822232.5,233.3698,270.6219,49.40313,53.53418
822249.5,233.0198,270.2834,49.36064,53.49989
822266.9,232.7728,269.9363,49.3306,53.46468
822282.3,232.4559,269.5731,49.29202,53.42777
822303.8,232.3529,269.2774,49.27946,53.39767
822319.6,232.4978,268.7567,49.29712,53.34457
822334.6,232.7719,268.291,49.33049,53.29697
822353.2,233.4586,267.7938,49.4139,53.24603
822370.3,234.0288,267.6067,49.48295,53.22683
822386.4,234.5294,267.5112,49.5434,53.21702
822403.3,235.2574,267.3776,49.63105,53.2033
822418.4,236.6826,267.0323,49.80173,53.16777
822435.7,238.6731,266.712,50.03813,53.13478
822452.3,240.8161,266.5107,50.29005,53.11401
822466.9,242.9666,266.3632,50.54021,53.09878
822482.8,245.2842,266.1995,50.80686,53.08187
822499.3,247.7872,265.9453,51.09146,53.05558
822515.5,250.6633,265.7091,51.41423,53.03112
822532.8,253.9064,265.4456,51.77279,53.0038
822550.4,256.9378,265.1967,52.10286,52.97797
822566.5,259.9304,265.0309,52.42399,52.96074
822582.9,263.1991,265.0307,52.76949,52.96072
822599.1,266.4052,265.2177,53.10312,52.98015
822616.1,269.725,265.4618,53.44321,53.00549
822632.9,273.7451,265.8844,53.84789,53.04927
822650.7,277.3857,266.3537,54.20773,53.0978
822666.9,282.3054,266.9634,54.68424,53.16068
822684.3,286.3303,267.4756,55.06593,53.21337
822699.8,290.6355,268.1711,55.4663,53.28469
822718.7,296.5624,269.0596,56.0045,53.37548
822744.9,301.0023,269.7042,56.39808,53.4411
822756.2,304.282,270.0158,56.68369,53.47275
822769.3,308.4978,270.3724,57.04455,53.50891
822786.8,312.2621,270.605,57.36095,53.53246
822802.2,316.2973,271.0339,57.69416,53.57582
822819.4,319.7601,271.552,57.9753,53.62809
822834.9,322.9867,271.9405,58.23336,53.66719
822851.9,325.975,272.3623,58.46906,53.70957
822880.7,329.2322,272.7537,58.72241,53.74881
822890.8,330.6414,273.0228,58.83089,53.77575
822901.8,332.4992,273.4882,58.97287,53.82225
822918.1,333.9907,273.9281,59.08602,53.86612
822934.1,335.3563,274.3989,59.18897,53.91296
822961.8,335.9437,274.8789,59.23306,53.96062
822978.7,336.0753,275.0842,59.24292,53.98097
822988.4,336.5828,275.5902,59.28091,54.03104
823004.1,336.3906,275.6621,59.26653,54.03814
823034.4,335.8048,275.653,59.22264,54.03725
823048.7,335.5772,275.7457,59.20556,54.04639
823061.4,335.0849,275.6584,59.16856,54.03777
823071.6,335.0854,275.5475,59.16859,54.02681
823088,334.425,275.3283,59.11882,54.00514
823105.3,334.2495,275.2829,59.10558,54.00064
823124.4,333.9774,275.2969,59.08501,54.00203
823137.9,333.8911,275.2903,59.07849,54.00138
823153.5,334.0103,275.0783,59.08751,53.98038
823171.9,334.38,274.7468,59.11543,53.94752
823189.4,335.3717,273.9852,59.19013,53.87181
823205,336.4303,273.2928,59.2695,53.80274
823222.4,337.6245,272.7478,59.3586,53.74821
823237.9,339.019,272.6925,59.46205,53.74268
823253.1,341.019,272.3264,59.60933,53.70596
823274.4,342.3822,271.6958,59.70898,53.64257
823289.1,344.4856,271.7208,59.86159,53.64509
823303.9,346.1471,271.6796,59.98115,53.64094
823321.7,347.7191,271.5311,60.09348,53.62598
823337.7,349.1261,271.6805,60.19338,53.64103
823353.9,350.5316,272.0707,60.29257,53.68028
823373.7,351.5378,272.4391,60.3632,53.71727
823388.3,352.3764,272.6646,60.42184,53.73988
823401.4,352.9406,272.7024,60.46118,53.74367
823423.1,353.3836,272.6737,60.492,53.7408
823435.1,353.3691,272.4606,60.49099,53.71943
823453.9,353.4931,272.16,60.49961,53.68925
823471.1,354.5874,271.9566,60.57544,53.66881
823487.5,354.2508,271.8742,60.55215,53.66053
823504.1,354.5783,271.7029,60.57481,53.64328
823521.4,354.6255,271.4272,60.57808,53.61551
823537.7,354.8958,271.4134,60.59675,53.61411
823553.7,355.2619,271.3939,60.62202,53.61215
823570.1,355.6187,271.4483,60.6466,53.61763
823587.6,355.9156,271.6561,60.66702,53.63857
823604.4,356.2383,271.755,60.68919,53.64853
823624.6,357.0654,271.7283,60.74588,53.64584
823638.9,358.0557,271.7001,60.81348,53.64301
823653.7,359.2265,271.8179,60.89305,53.65486
823671.1,360.233,271.557,60.96113,53.62859
823687.7,362.4165,271.4715,61.10783,53.61998
823708.2,363.0628,271.3646,61.151,53.6092
823721,364.703,271.0406,61.26001,53.5765
823736.7,366.1535,270.6457,61.35579,53.53658
823753.4,367.1571,270.221,61.42172,53.49356
823770.8,367.3298,269.598,61.43304,53.4303
823788.4,367.3173,269.1343,61.43222,53.3831
823803.8,367.0099,268.7666,61.41207,53.34558
823821.1,367.2463,268.5,61.42757,53.31835
823836.9,366.9028,267.7199,61.40504,53.23845
823852.5,367.1096,266.975,61.41861,53.16188
823871,367.1918,266.5015,61.424,53.11306
823886.9,367.1282,266.2934,61.41983,53.09157
823904.6,366.9091,266.1878,61.40546,53.08066
823921.8,366.7398,266.0305,61.39434,53.0644
823940.4,366.9225,265.8488,61.40634,53.04559
823955.8,367.0567,265.7113,61.41514,53.03135
823970.6,367.1062,265.4687,61.41838,53.0062
823989.7,367.264,265.2031,61.42873,52.97863
824007.6,367.8263,264.9198,61.46553,52.94918
824023.6,368.7244,264.6279,61.52413,52.9188
824041.3,369.9138,264.1209,61.6014,52.86594
824056.8,370.9707,263.5583,61.66973,52.80712
824073.6,372.4263,263.0872,61.76336,52.75775
824090.1,373.9766,262.7632,61.86245,52.72372
824106.3,375.6516,262.4979,61.9688,52.69584
824122.1,377.2878,262.2304,62.07197,52.66767
824140.3,378.3921,261.8634,62.1412,52.62897
824155.8,379.3762,261.4676,62.20264,52.58715
824172.1,380.4819,261.3111,62.27137,52.57059
824189.1,381.3742,261.277,62.32661,52.56699
824206.1,381.6189,260.969,62.34172,52.53436
824223.9,381.6304,260.5166,62.34244,52.48636
824241.1,381.606,260.1277,62.34093,52.445
824256.8,381.2519,260.2172,62.31905,52.45452
824270.9,380.9109,260.3543,62.29796,52.46911
824288.1,379.9711,260.3731,62.23966,52.47111
824305,379.0666,260.2304,62.18334,52.45593
824322.4,378.1398,260.2024,62.12542,52.45295
824338.9,377.052,260.3862,62.05714,52.4725
824356.4,375.9394,260.6115,61.98699,52.49643
824373.4,374.7077,260.6408,61.90896,52.49955
824389.6,373.3665,260.2895,61.82352,52.46222
824404.9,372.531,260.1317,61.77007,52.44543
824423.1,372.0518,260.3154,61.73932,52.46497
824438.3,371.6525,260.5349,61.71366,52.4883
824453.9,371.2397,260.7789,61.68708,52.5142
824473.8,370.6315,261.0931,61.64783,52.54751
824491.5,369.8221,261.1043,61.59545,52.54871
824504.7,368.5275,260.9181,61.5113,52.52896
824522.3,367.1769,260.8709,61.42302,52.52396
824538.8,365.4612,261.0338,61.31015,52.54123
824557,363.1142,261.4368,61.15443,52.58389
824571.7,359.852,261.3575,60.93539,52.5755
824588.4,356.7349,261.0399,60.72325,52.54188
824605.3,353.7256,260.8861,60.51575,52.52558
824622.1,351.0673,261.1269,60.33021,52.55109
824638.8,347.793,261.6717,60.09874,52.60872
824656.9,344.405,261.5196,59.85577,52.59265
824674.9,341.6881,260.7735,59.65832,52.51363
824690.4,339.6014,260.4387,59.50508,52.47808
824707.2,337.6721,260.4143,59.36214,52.47549
824723.1,336.0731,260.6961,59.24276,52.50542
824739.2,334.0126,260.6966,59.08768,52.50547
824755.2,331.7804,260.4321,58.91807,52.47738
824775.5,330.0758,260.4061,58.78743,52.47461
824791.4,328.5479,260.487,58.66948,52.48321
824807.6,327.2737,260.311,58.57051,52.46451
824824.3,326.447,259.3485,58.50599,52.36192
824841.1,326.1919,258.3743,58.48604,52.25759
824858.4,326.8553,257.4672,58.53788,52.16001
824872.1,329.0487,256.5399,58.70823,52.05981
824891.3,331.2738,255.2714,58.87935,51.92202
824906.5,335.3555,253.9539,59.18891,51.778
824925.4,339.4912,253.0425,59.49694,51.67782
824942.4,344.1602,252.45,59.83807,51.61246
824957.4,350.1737,251.8839,60.26736,51.54984
824975.5,355.8242,251.3587,60.66073,51.49159
824992.8,362.3232,250.7574,61.10159,51.42471
825011.2,368.6823,250.2657,61.52139,51.36988
825033.6,375.7602,249.6731,61.97566,51.30362
825046.1,380.3661,249.5014,62.26419,51.28438
825057.4,386.5587,249.4794,62.6436,51.28192
825073.4,392.0996,248.935,62.97503,51.22081
825091.8,396.6714,247.9468,63.24295,51.1095
825107.8,400.946,247.1085,63.48904,51.01464
825122.3,404.6609,246.4563,63.69953,50.94057
825138.7,407.9337,245.9975,63.88241,50.88833
825154.9,410.4006,246.0865,64.0187,50.89847
825171.9,412.2958,246.0489,64.12251,50.89418
825188.7,414.3161,245.8705,64.23232,50.87384
825206.1,415.8866,245.6768,64.31709,50.85173
825222.8,416.1919,245.9411,64.3335,50.88189
825238.9,416.0211,246.3056,64.32432,50.92342
825255.7,415.2144,246.2979,64.28086,50.92255
825273.3,413.8194,246.2286,64.2054,50.91465
825289.7,413.2732,246.653,64.17574,50.96294
825305.1,412.9121,247.1517,64.1561,51.01954
825321.9,412.2345,247.8835,64.11916,51.10234
825339.1,411.839,248.0431,64.09756,51.12037
825355.2,412.0663,247.992,64.10997,51.1146
825373.1,412.4175,248.0395,64.12914,51.11996
825389.2,413.2935,247.8267,64.17684,51.09594
825406.3,414.4978,247.6385,64.24215,51.07465
825423.7,415.8647,247.6712,64.3159,51.07835
825440.1,417.0436,247.8863,64.3792,51.10266
825456,417.7729,248.1719,64.41821,51.1349
825475.8,417.8125,248.6522,64.42033,51.18902
825495.5,417.1778,248.891,64.38638,51.21587
825508.5,415.3515,249.0834,64.28826,51.23749
825526.7,413.4268,249.371,64.18409,51.26976
825540.3,410.7462,249.8381,64.03768,51.32208
825556.9,407.4833,250.3829,63.85738,51.38296
825572.2,402.396,250.7047,63.57158,51.41885
825591.4,398.1359,250.7206,63.32774,51.42061
825606.3,392.6449,250.8488,63.00725,51.43489
825623.9,387.5434,251.2806,62.70304,51.48292
825640.6,382.3777,251.9056,62.3885,51.55225
825656.6,376.825,252.8057,62.04286,51.65173
825672.9,370.4662,253.7171,61.63715,51.75201
825690.8,364.7556,254.1571,61.2635,51.80027
825706.7,358.2337,254.615,60.8256,51.85037
825724.1,352.3535,255.2833,60.42025,51.92331
825740,345.9771,255.8793,59.96895,51.98816
825756.7,338.2936,256.2269,59.40831,52.02589
825773.6,331.1041,256.3122,58.86636,52.03514
825790,323.2216,256.6408,58.252,52.07074
825807,314.815,256.8389,57.57246,52.09217
825823.9,306.3916,257.0791,56.86513,52.11813
825843.8,298.6665,257.1872,56.19202,52.1298
825860.7,291.4331,257.4001,55.5396,52.15278
825876.9,283.8906,257.6753,54.83543,52.18243
825892.5,275.5331,258.3796,54.02539,52.25817
825911.1,268.3732,259.0916,53.30538,52.33445
825926.9,260.9827,259.7149,52.53582,52.40102
825943.3,253.7363,260.0312,51.75412,52.43473
825958.9,246.8706,260.358,50.98764,52.46951
825975.5,239.304,260.7326,50.11257,52.50929
825992.7,232.6164,261.2701,49.31156,52.56626
826006.9,225.56,261.95,48.43716,52.6381
826025.1,219.4435,262.3384,47.65408,52.67905
826041.3,213.5107,262.9299,46.87137,52.74124
826057.1,207.3078,264.2543,46.02787,52.87986
826074.5,200.8116,265.4766,45.11602,53.00702
826094.3,193.9267,266.42,44.11672,53.10465
826111.5,186.5241,267.2094,43.00323,53.186
826128.8,180.2191,267.6646,42.02188,53.23278
826144.1,172.9298,268.3303,40.8483,53.30099
826160.1,165.2779,268.8899,39.56997,53.35817
826175.6,156.7288,269.5795,38.08381,53.42842
826192.9,148.3971,269.8171,36.57487,53.45257
826209.3,140.54,269.944,35.09571,53.46546
826226.4,134.5631,269.6167,33.93327,53.43221
826244.1,128.7882,269.877,32.77915,53.45866
826262.5,124.6593,270.219,31.93514,53.49336
826278.4,121.5211,270.4391,31.2831,53.51566
826291.4,119.3598,270.5613,30.8287,53.52804
826309,120.7382,270.7385,31.11901,53.54597
826325.8,122.4932,271.2762,31.48604,53.60029
826342.7,125.6495,271.8884,32.139,53.66195
826361.8,131.0012,271.6264,33.22504,53.63558
826378.1,135.578,271.5508,34.13295,53.62796
