Time Stamp(ms),Intersection,,Angle,
,x,y,x,y
1149362,315.0444,245.8626,57.59135,50.87294
1149384,315.0304,245.7536,57.59019,50.8605
1149406,315.0111,245.7497,57.58861,50.86005
1149429,314.8999,245.5602,57.57945,50.83842
1149451,314.7661,245.4938,57.56843,50.83083
1149476,314.6311,245.3123,57.55731,50.81007
1149499,314.3503,245.3811,57.53414,50.81795
1149521,314.1955,245.3284,57.52135,50.81192
1149545,314.0457,245.355,57.50898,50.81496
1149571,313.993,245.4701,57.50462,50.82812
1149587,314.0242,245.6976,57.5072,50.85411
1149613,314.077,245.7098,57.51156,50.8555
1149637,314.036,245.8471,57.50817,50.87117
1149661,314.0378,246.017,57.50832,50.89054
1149685,313.9297,246.2336,57.49938,50.91523
1149708,313.7028,246.6904,57.48061,50.96719
1149732,313.658,246.7477,57.4769,50.9737
1149757,313.5143,246.8852,57.465,50.9893
1149780,313.381,247.1663,57.45395,51.02119
1149803,313.5744,247.7447,57.46998,51.08667
1149823,313.9164,248.5114,57.49828,51.17316
1149848,314.5503,249.8648,57.55064,51.32507
1149871,315.3602,250.8482,57.61731,51.43482
1149897,316.2159,251.6184,57.6875,51.52041
1149919,316.9529,251.8356,57.74773,51.54449
1149943,317.6445,251.3252,57.80406,51.48787
1149966,317.9261,250.7601,57.82694,51.42501
1149989,318.3558,250.4139,57.86181,51.38642
1150014,318.6665,250.1029,57.88699,51.35169
1150036,318.823,249.9106,57.89965,51.33019
1150063,318.9724,249.9682,57.91173,51.33664
1150086,319.0813,250.2277,57.92053,51.36563
1150109,318.9733,250.8308,57.9118,51.43288
1150133,318.5782,251.0536,57.87984,51.45768
1150156,317.6681,251.0003,57.80598,51.45175
1150181,315.5879,249.2959,57.63602,51.26134
1150204,313.3669,247.5316,57.45278,51.06256
1150227,310.4727,245.2472,57.21121,50.80262
1150250,307.3995,242.0291,56.9512,50.43148
1150274,304.0947,239.1534,56.66748,50.09483
1150300,300.6426,235.8759,56.36649,49.70528
1150321,297.4928,232.9058,56.08764,49.34678
1150345,293.9486,229.591,55.76898,48.94041
1150369,291.1975,227.1702,55.51798,48.6394
1150391,288.8918,225.3496,55.30511,48.41063
1150414,286.58,223.7215,55.08938,48.20428
1150438,284.5457,222.8228,54.89758,48.08968
1150466,282.6726,222.1589,54.71936,48.00467
1150487,281.7236,221.9175,54.62846,47.97369
1150512,280.9367,221.6765,54.55278,47.94273
1150535,280.111,221.1223,54.47306,47.87138
1150554,279.3134,220.5491,54.39576,47.79739
1150578,278.7593,219.8665,54.34189,47.709
1150603,278.1805,218.6949,54.28546,47.55658
1150625,277.3258,217.5215,54.20185,47.40303
1150650,276.4945,216.4288,54.12022,47.25924
1150672,275.9989,215.6616,54.07139,47.15781
1150697,275.2815,215.0223,54.0005,47.07299
1150720,274.4523,214.7507,53.91827,47.03688
1150744,273.6915,214.8432,53.84254,47.04918
1150767,273.0146,215.0668,53.77493,47.07891
1150792,272.389,215.678,53.71225,47.15998
1150815,271.6896,216.4225,53.64194,47.25842
1150837,271.1547,217.0918,53.58802,47.34658
1150862,269.971,217.9846,53.4682,47.46375
1150886,268.5385,218.564,53.32228,47.5395
1150909,266.9437,219.5812,53.15865,47.67197
1150931,264.8035,221.0406,52.93709,47.86086
1150953,262.7187,222.7196,52.71905,48.07647
1150979,260.3816,224.6494,52.47201,48.32209
1151004,257.9659,226.7787,52.21372,48.59039
1151025,255.8474,228.8141,51.98469,48.8442
1151049,253.418,230.9734,51.71915,49.11069
1151073,251.1866,232.6259,51.47247,49.31272
1151098,249.1184,233.9992,51.24142,49.47936
1151120,247.5833,234.0275,51.06841,49.48278
1151143,246.2675,233.4818,50.91909,49.41672
1151167,245.4749,232.223,50.82867,49.26361
1151188,244.7707,231.3104,50.74804,49.15203
1151212,244.4296,230.9432,50.70889,49.10699
1151237,244.3817,231.8227,50.70338,49.21473
1151260,244.3353,232.6495,50.69806,49.3156
1151283,244.7031,233.773,50.74028,49.45199
1151305,245.5533,234.4198,50.83762,49.53017
1151329,246.4307,235.0339,50.93766,49.60418
1151352,247.2946,236.2328,51.03572,49.748
1151376,248.0984,237.9828,51.12661,49.95642
1151400,248.9121,240.5315,51.21825,50.25675
1151423,249.5579,243.5764,51.29071,50.61066
1151445,250.442,246.9269,51.38955,50.99404
1151474,251.7854,250.1263,51.53892,51.35431
1151496,252.9668,252.1907,51.66949,51.5838
1151521,254.2971,253.9215,51.8156,51.77444
1151546,255.1824,254.9993,51.91232,51.89234
1151567,256.1393,256.0448,52.01638,52.00613
1151589,256.9231,256.8117,52.10127,52.08923
1151611,257.575,257.6848,52.17163,52.18346
1151638,258.1975,258.4783,52.23861,52.26875
1151659,259.0033,259.0286,52.325,52.32772
1151684,259.9128,259.6461,52.42212,52.39368
1151706,261.1416,260.7794,52.55265,52.51426
1151731,262.5528,262.5513,52.70161,52.70145
1151755,263.8612,263.9729,52.83881,52.85049
1151777,265.0985,265.0848,52.96776,52.96634
1151802,266.3728,266.3253,53.09978,53.09487
1151823,267.665,267.0184,53.23282,53.16634
1151848,269.3495,267.8332,53.40502,53.25007
1151872,270.9054,269.5313,53.56284,53.42352
1151897,272.5203,271.7701,53.72541,53.65005
1151919,274.6225,274.489,53.93518,53.92192
1151942,276.8577,276.5828,54.15593,54.1289
1151966,280.0854,276.6395,54.47059,54.13448
1151993,283.3357,276.8748,54.78263,54.15761
1152012,286.7584,276.9278,55.1061,54.16282
1152037,290.7346,276.4986,55.47542,54.12062
1152060,293.9206,276.8442,55.76644,54.1546
1152084,297.3034,277.7958,56.07074,54.24787
1152107,300.1715,279.1071,56.32504,54.37572
1152130,302.7389,280.5173,56.54984,54.51233
1152154,305.1535,281.912,56.75885,54.64654
1152176,307.0932,283.1892,56.92509,54.76867
1152200,308.6127,284.5214,57.05428,54.89528
1152227,308.8057,285.6398,57.07063,55.00096
1152245,308.2454,286.3419,57.02313,55.06702
1152271,308.0021,286.9256,57.00247,55.12178
1152293,307.6896,287.3144,56.97591,55.15816
1152318,307.6566,287.4291,56.97309,55.16889
1152344,308.1952,287.1688,57.01887,55.14454
1152367,308.9117,286.6528,57.0796,55.09621
1152389,310.0453,286.0366,57.17527,55.03833
1152412,311.3239,285.9424,57.28259,55.02946
1152437,312.9118,285.502,57.415,54.98797
1152458,314.7039,284.9991,57.5633,54.94049
1152483,316.7825,284.6807,57.73381,54.91037
1152508,318.4138,284.7529,57.86651,54.9172
1152530,319.9023,284.7755,57.98675,54.91934
1152555,321.6956,284.6064,58.13055,54.90334
1152577,323.2612,284.5835,58.25514,54.90117
1152601,324.3909,284.4656,58.3445,54.89
1152626,325.4328,284.3706,58.42652,54.88099
1152649,326.2784,284.1384,58.49281,54.85897
1152672,326.9031,283.9088,58.54162,54.83716
1152694,327.4856,283.7311,58.58701,54.82027
1152720,328.124,282.9968,58.63662,54.75032
1152752,328.6241,282.1801,58.67538,54.67223
1152773,328.9333,281.9924,58.69931,54.65425
1152790,329.3792,281.5795,58.73375,54.61462
1152813,329.9063,281.0243,58.77438,54.56121
1152838,330.8977,280.4046,58.85055,54.50144
1152861,331.7876,280.1444,58.91862,54.47629
1152887,332.3595,280.2284,58.96223,54.48441
1152908,332.8944,279.9057,59.00293,54.4532
1152930,333.197,279.3409,59.0259,54.39844
1152956,333.033,278.907,59.01345,54.35626
1152980,332.8246,278.6256,58.99762,54.32887
1153006,332.4569,277.7957,58.96965,54.24786
1153028,332.1667,276.921,58.94755,54.16214
1153047,332.1272,276.6172,58.94453,54.13229
1153072,332.3002,276.61,58.95772,54.13157
1153095,332.587,276.4985,58.97955,54.12061
1153114,332.9956,276.6692,59.01062,54.1374
1153142,333.4886,276.791,59.04802,54.14937
1153164,333.9734,277.0043,59.08472,54.17032
1153189,334.3142,277.3843,59.11047,54.20759
1153211,334.4726,277.7275,59.12242,54.2412
1153230,334.5519,278.0362,59.1284,54.27137
1153259,334.4552,278.1147,59.12111,54.27903
1153279,334.1768,278.0345,59.10009,54.27121
1153306,333.7232,278.1151,59.06578,54.27908
1153330,333.2831,278.212,59.03243,54.28854
1153349,333.1008,278.008,59.0186,54.26862
1153374,332.9523,277.5511,59.00733,54.22393
1153400,332.9641,277.1252,59.00822,54.18218
1153425,333.6301,276.088,59.05873,54.08018
1153445,334.4374,275.3744,59.11977,54.0097
1153469,336.045,274.2428,59.24065,53.89745
1153494,337.478,273.0807,59.34769,53.78154
1153515,339.2078,271.6381,59.47601,53.63676
1153543,341.5652,269.8781,59.64933,53.45877
1153564,344.0426,268.3696,59.82956,53.30501
1153586,347.1518,266.2368,60.05303,53.08572
1153610,350.2575,263.9571,60.27327,52.84883
1153633,352.9798,263.0903,60.46391,52.75808
1153658,355.3763,262.504,60.6299,52.69647
1153680,357.3062,261.2659,60.76234,52.56581
1153707,358.6914,259.9529,60.85673,52.4264
1153728,359.8017,259.2688,60.93199,52.3534
1153754,360.6237,258.6862,60.98748,52.29105
1153777,360.7492,258.5792,60.99594,52.27958
1153798,360.6762,258.9533,60.99102,52.31965
1153823,360.6619,259.5326,60.99006,52.38158
1153847,360.3173,260.477,60.96682,52.48214
1153870,360.2285,260.8683,60.96082,52.52369
1153891,360.1906,259.9345,60.95827,52.42443
1153913,358.9872,258.2272,60.87682,52.24179
1153939,358.076,256.3098,60.81487,52.03489
1153961,357.1699,254.616,60.75302,51.85049
1153984,356.2069,253.0123,60.68703,51.6745
1154009,355.4021,251.1981,60.63168,51.47374
1154030,354.7242,250.0826,60.5849,51.34942
1154054,353.9333,248.7529,60.53015,51.20034
1154078,353.3016,247.7681,60.4863,51.08931
1154101,352.6776,246.741,60.44286,50.97293
1154126,352.0388,245.7059,60.39826,50.85505
1154148,351.4844,245.0408,60.35946,50.779
1154173,351.1037,244.7327,60.33277,50.74369
1154195,350.6861,244.9423,60.30343,50.76772
1154221,350.1808,245.4781,60.26786,50.82904
1154246,349.7491,246.1624,60.23742,50.90711
1154265,349.0218,246.8114,60.18599,50.98093
1154290,347.6291,247.1998,60.08707,51.02499
1154313,346.2275,247.1803,59.98691,51.02277
1154335,344.751,247.2779,59.88074,51.03384
1154361,342.9425,246.8795,59.74977,50.98866
1154387,341.5603,246.599,59.64898,50.95679
1154407,339.7627,246.306,59.51697,50.92347
1154432,338.5578,246.1417,59.42791,50.90475
1154453,337.3086,246.4214,59.33508,50.9366
1154479,336.0907,246.7761,59.24408,50.97692
1154503,335.0284,246.9581,59.1643,50.99758
1154542,333.4453,247.103,59.04473,51.01402
1154557,332.8489,247.2246,58.99947,51.02779
1154572,331.9215,247.3307,58.92885,51.03982
1154594,331.2233,247.6595,58.87548,51.07703
1154619,330.7332,247.8876,58.83793,51.10282
1154645,330.3442,248.1475,58.80807,51.13214
1154668,330.1296,248.5005,58.79156,51.17194
1154690,329.6503,248.9433,58.75467,51.22175
1154712,329.1298,249.4309,58.7145,51.27648
1154736,328.4049,249.8074,58.65841,51.31865
1154760,327.5529,250.2826,58.59225,51.37176
1154784,326.8639,250.7876,58.53856,51.42807
1154808,326.4517,251.1591,58.50636,51.46941
1154830,326.2222,251.5721,58.48841,51.51528
1154853,325.9123,252.107,58.46414,51.57454
1154878,325.6765,252.8773,58.44565,51.65962
1154900,325.6783,253.4574,58.44579,51.72348
1154926,325.642,253.8506,58.44294,51.76666
1154948,325.6738,254.191,58.44544,51.80398
1154970,325.6809,254.5028,58.446,51.83811
1154996,325.5307,254.7444,58.43421,51.86451
1155018,325.0603,254.6593,58.39724,51.85522
1155043,324.4656,254.329,58.3504,51.81909
1155066,323.7511,254.171,58.29395,51.80179
1155089,323.0088,254.0078,58.23512,51.78391
1155111,321.9668,254.1546,58.15219,51.8
1155134,321.0725,254.2358,58.08072,51.80889
1155160,319.8294,254.6939,57.98088,51.859
1155183,319.0199,255.2986,57.91557,51.92498
1155206,318.4745,255.7611,57.87144,51.97532
1155229,318.0573,256.5711,57.8376,52.06319
1155252,317.7315,257.4764,57.81113,52.161
1155277,318.1418,258.4114,57.84446,52.26157
1155300,318.2859,259.0384,57.85615,52.32876
1155322,318.0223,260.0356,57.83475,52.4352
1155347,317.4551,261.1141,57.78865,52.54974
1155375,317.3543,260.6959,57.78045,52.5054
1155398,316.8008,260.5904,57.73531,52.4942
1155419,315.7669,260.3937,57.65071,52.4733
1155444,314.5772,259.9389,57.55286,52.4249
1155468,313.4995,259.2367,57.46378,52.34997
1155487,311.8939,259.0975,57.33023,52.33508
1155513,310.1187,259.0363,57.18145,52.32853
1155534,308.6136,259.0796,57.05436,52.33317
1155559,307.0206,259.2266,56.91889,52.34888
1155583,305.6643,259.6179,56.80277,52.39068
1155607,304.5949,259.9299,56.7107,52.42395
1155632,303.6789,260.0496,56.63148,52.43669
1155650,303.4498,259.764,56.61161,52.40626
1155675,303.79,259.2734,56.64111,52.35389
1155699,304.4586,258.6888,56.69894,52.29132
1155722,305.8219,257.9395,56.8163,52.21087
1155747,307.4492,257.1307,56.95543,52.1237
1155769,309.3789,255.9689,57.11909,51.99789
1155792,311.4678,253.5983,57.29463,51.73897
1155817,313.1564,249.4201,57.43531,51.27526
1155838,313.8768,243.1704,57.49501,50.56377
1155863,313.8933,237.5236,57.49638,49.9019
1155887,313.9931,231.2131,57.50463,49.1401
1155910,313.5716,224.8037,57.46975,48.34163
1155933,313.353,220.1964,57.45163,47.75176
1155956,313.8014,216.7649,57.48877,47.30356
1155980,314.4819,213.5877,57.545,46.88168
1156003,315.0736,211.1517,57.59375,46.55366
1156028,315.9812,209.4671,57.66828,46.32448
1156050,316.723,208.3615,57.72896,46.17301
1156073,317.1054,207.9782,57.76016,46.1203
1156098,317.4651,207.8811,57.78947,46.10693
1156123,317.96,207.498,57.8297,46.05413
1156145,318.1669,206.4506,57.84649,45.90924
1156170,317.5989,205.4386,57.80035,45.76852
1156193,317.0708,204.4472,57.75734,45.62999
1156219,316.6443,203.6745,57.72253,45.52153
1156241,316.0515,202.6234,57.67403,45.37333
1156263,315.256,201.6338,57.60875,45.23307
1156287,314.8,200.9786,57.57122,45.13983
1156312,314.3593,200.5182,57.53488,45.07413
1156334,314.0051,200.1043,57.50562,45.01493
1156357,313.8843,199.9251,57.49563,44.98927
1156383,313.8978,200.0377,57.49675,45.0054
1156407,313.859,200.461,57.49354,45.06595
1156429,314.0468,200.7669,57.50907,45.10964
1156452,314.171,201.5685,57.51933,45.2238
1156475,314.2249,202.2732,57.52379,45.32376
1156499,314.2957,202.6206,57.52964,45.37292
1156524,314.2448,202.9361,57.52543,45.41749
1156549,314.0847,203.4569,57.5122,45.49091
1156570,313.7791,203.6809,57.48692,45.52243
1156591,313.2415,204.4053,57.44238,45.62411
1156618,312.737,205.4999,57.40047,45.77707
1156640,312.3717,206.8268,57.37008,45.96136
1156663,311.9339,209.1716,57.33357,46.28407
1156688,311.6051,211.4777,57.30611,46.59779
1156709,311.2371,214.4486,57.27533,46.99665
1156736,310.6023,218.2488,57.2221,47.49831
1156756,309.8857,222.0173,57.16183,47.9865
1156778,308.6585,226.2573,57.05816,48.52494
1156804,306.6744,229.394,56.88932,48.91605
1156826,304.7174,232.0526,56.72128,49.24282
1156850,302.1572,234.2467,56.49915,49.50928
1156873,300.024,235.5812,56.31205,49.66994
1156894,297.9965,236.9393,56.13251,49.83235
1156922,296.2527,238.7632,55.97675,50.04877
1156945,295.101,240.6004,55.87317,50.26482
1156967,294.2529,242.4923,55.79654,50.48526
1156991,293.6712,244.2,55.74382,50.6825
1157013,293.4313,245.9081,55.72203,50.87813
1157036,293.2162,246.8725,55.70248,50.98787
1157063,293.1017,247.726,55.69205,51.08455
1157087,293.1642,248.2732,55.69774,51.14632
1157107,293.223,248.7199,55.70309,51.19663
1157131,293.504,248.6589,55.72863,51.18977
1157154,293.8732,248.5839,55.76214,51.18132
1157179,294.4391,248.2752,55.81339,51.14655
1157204,295.1257,248.079,55.8754,51.12442
1157227,295.8732,248.1285,55.94267,51.13
1157250,296.3611,248.2209,55.98646,51.14042
1157273,296.8036,248.4464,56.02608,51.16584
1157293,297.2367,248.6913,56.0648,51.19342
1157320,297.4993,248.9559,56.08822,51.22316
1157346,297.5211,249.1957,56.09017,51.2501
1157367,297.3917,249.3358,56.07862,51.26582
1157394,297.1804,249.5419,56.05976,51.28891
1157413,296.9047,249.3295,56.03513,51.26511
1157438,296.7215,249.0312,56.01874,51.23163
1157463,296.7596,248.5013,56.02214,51.17202
1157487,297.1012,248.4841,56.05269,51.17009
1157508,297.5533,248.6292,56.09303,51.18642
1157532,298.1604,248.7344,56.14709,51.19826
1157556,298.8481,248.9115,56.20812,51.21818
1157579,299.4274,249.0989,56.25939,51.23923
1157603,299.8668,249.3042,56.29819,51.26227
1157625,300.0466,249.4309,56.31404,51.27648
1157648,300.3606,249.4769,56.34169,51.28164
1157672,300.3205,249.4686,56.33816,51.28071
1157695,300.2333,249.6432,56.33048,51.30027
1157719,300.1619,249.5077,56.3242,51.28509
1157744,300.1259,249.4504,56.32102,51.27867
1157768,300.3187,249.376,56.33801,51.27032
1157790,300.6468,249.3597,56.36686,51.26849
1157815,301.0914,249.0822,56.4059,51.23736
1157840,301.4245,249.2803,56.43509,51.25959
1157862,301.6534,249.1311,56.45512,51.24285
1157883,301.7152,248.7669,56.46053,51.20192
1157907,301.5976,248.5479,56.45024,51.17728
1157929,300.8745,247.6507,56.38686,51.07603
1157957,301.3597,248.0638,56.42941,51.1227
1157978,300.9737,248.1712,56.39557,51.13482
1158003,301.4067,247.5747,56.43353,51.06744
1158027,301.5761,247.6409,56.44836,51.07492
1158050,301.0675,247.601,56.4038,51.07042
1158072,300.7766,247.6233,56.37827,51.07294
1158096,300.5128,247.3619,56.35508,51.04335
1158121,299.7456,247.1472,56.28749,51.01902
1158145,299.7464,247.4891,56.28756,51.05775
1158169,298.9149,246.096,56.21405,50.89956
1158191,299.0123,246.0632,56.22267,50.89581
1158211,298.738,246.1578,56.19837,50.9066
1158239,298.4651,246.0329,56.17416,50.89236
1158260,298.3541,245.8394,56.1643,50.8703
1158286,297.9414,245.6137,56.12761,50.84452
1158309,297.4803,245.5551,56.08653,50.83783
1158330,296.9023,245.4115,56.03491,50.82142
1158359,296.1108,245.0938,55.96401,50.78507
1158378,295.5032,244.913,55.9094,50.76436
1158399,294.7011,244.8269,55.83708,50.75449
1158424,293.9579,244.8949,55.76982,50.76228
1158447,293.2527,244.8626,55.70579,50.75858
1158471,292.314,244.7817,55.62023,50.7493
1158492,291.7806,244.7066,55.57145,50.74069
1158515,291.377,244.5715,55.53445,50.72518
1158542,290.459,244.3948,55.45005,50.70489
1158565,290.0032,244.0942,55.40801,50.67033
1158587,289.5829,243.9219,55.36916,50.65049
1158609,289.1746,243.6007,55.33135,50.61347
1158633,288.6892,243.2276,55.28631,50.57039
1158658,288.4145,242.8349,55.26077,50.52497
1158683,288.0756,242.3182,55.22921,50.46507
1158706,287.7449,241.9696,55.19838,50.42456
1158726,287.4181,241.8517,55.16785,50.41085
1158752,287.1046,241.7632,55.13854,50.40055
1158777,286.7691,241.6717,55.10711,50.3899
1158799,286.266,241.4407,55.05989,50.36299
1158824,285.6978,241.2116,55.00642,50.33626
1158846,285.2235,240.891,54.96169,50.29881
1158868,284.7392,240.6316,54.9159,50.26847
1158892,284.192,240.3092,54.86405,50.2307
1158917,283.798,240.1306,54.82663,50.20976
1158940,283.3453,239.8555,54.78355,50.17746
1158962,282.9132,239.7477,54.74234,50.16478
1158986,282.4194,239.6524,54.69515,50.15359
1159010,281.8694,239.3319,54.64246,50.11586
1159032,281.2728,239.1062,54.58514,50.08926
1159059,280.4258,238.865,54.50349,50.06079
1159081,279.274,238.4489,54.39194,50.01162
1159105,277.6463,237.7456,54.23325,49.92826
1159128,276.2096,237.0038,54.09216,49.84004
1159149,274.6708,236.696,53.93998,49.80334
1159176,272.97,236.3563,53.77047,49.76277
1159196,271.257,235.9854,53.59834,49.7184
1159222,269.3501,235.6598,53.40508,49.67936
1159246,267.9225,235.4568,53.25922,49.65501
1159271,266.2104,235.4694,53.083,49.65652
1159292,264.8806,235.6258,52.94511,49.67528
1159316,263.7798,235.8595,52.83029,49.70331
1159337,262.7795,235.9622,52.72544,49.71561
1159360,261.8305,235.4352,52.6255,49.65241
