Time Stamp(ms),Intersection,,Angle,
,x,y,x,y
1768931,320.9893,246.1877,58.07405,50.91
1768968,320.9267,246.3836,58.06903,50.9323
1769001,321.0388,246.5205,58.07802,50.94788
1769042,321.1021,246.5522,58.08308,50.95147
1769076,321.1068,246.6431,58.08346,50.9618
1769106,321.1866,246.6836,58.08985,50.96642
1769142,321.3477,246.6513,58.10274,50.96275
1769175,321.3683,246.6782,58.10439,50.9658
1769209,321.2874,246.7665,58.09792,50.97583
1769247,321.3503,246.7429,58.10295,50.97315
1769282,321.3969,246.7863,58.10667,50.97808
1769315,321.4203,246.7893,58.10855,50.97842
1769353,321.3802,246.6816,58.10534,50.96618
1769389,321.3114,246.7169,58.09983,50.97019
1769426,321.3637,246.7711,58.10402,50.97635
1769462,321.2762,246.8186,58.09702,50.98174
1769495,321.0917,246.859,58.08225,50.98633
1769537,320.8657,247.0789,58.06414,51.01128
1769566,320.8567,247.4539,58.06343,51.05377
1769599,321.168,248.8363,58.08836,51.20972
1769635,321.0469,252.1169,58.07867,51.57563
1769672,320.6279,254.4377,58.04507,51.83098
1769710,319.847,256.6891,57.9823,52.07597
1769745,319.2741,259.1938,57.93611,52.34538
1769778,317.9803,261.7534,57.83135,52.61736
1769811,315.5446,264.7999,57.63247,52.93671
1769847,312.2435,268.8262,57.35939,53.35167
1769882,308.8374,273.3692,57.07331,53.81038
1769917,304.9417,279.5013,56.74061,54.414
1769957,301.4612,285.4452,56.4383,54.98261
1769991,298.1637,292.7166,56.14738,55.65697
1770025,295.6084,300.6151,55.91887,56.36407
1770060,293.2945,308.2441,55.70959,57.02302
1770094,291.2133,316.1552,55.51943,57.68253
1770130,290.1251,323.5256,55.41926,58.2761
1770164,289.6842,331.6552,55.37853,58.90852
1770199,289.8339,339.398,55.39236,59.49006
1770234,289.0162,346.682,55.31666,60.01946
1770269,288.6921,353.4647,55.28657,60.49763
1770309,288.0684,358.8507,55.22855,60.86755
1770346,286.7909,364.4122,55.10915,61.24074
1770379,285.4948,368.1135,54.98729,61.48429
1770410,284.3145,370.5109,54.87567,61.64004
1770447,283.2452,372.9312,54.77401,61.7957
1770485,281.7476,374.7896,54.63076,61.91416
1770524,280.4138,375.6051,54.50234,61.96585
1770550,279.2867,376.4244,54.39317,62.01761
1770585,277.082,376.1017,54.17794,61.99725
1770624,273.9239,376.5378,53.8657,62.02477
1770654,267.2993,376.3248,53.19525,62.01133
1770692,257.1276,374.4044,52.12337,61.88968
1770726,245.9914,372.0764,50.88762,61.7409
1770760,234.595,367.5467,49.55131,61.44724
1770796,221.7465,363.0854,47.95173,61.15251
1770829,208.4075,358.4941,46.17933,60.84332
1770865,196.4327,355.5625,44.48444,60.64272
1770902,188.5379,353.9527,43.31023,60.5315
1770935,182.3635,351.9422,42.3591,60.39151
1770969,179.3707,350.6693,41.88745,60.30225
1771005,178.8211,350.4981,41.80008,60.2902
1771042,180.5077,350.7494,42.06746,60.30788
1771076,183.6915,350.2117,42.56615,60.27004
1771110,187.8812,347.5465,43.21046,60.08118
1771147,194.4856,346.0517,44.19913,59.97431
1771180,205.1445,345.3834,45.7275,59.9263
1771213,218.915,344.0374,47.58529,59.82918
1771250,232.4183,341.9891,49.28743,59.68031
1771286,249.3665,340.8158,51.26925,59.59443
1771319,265.3336,337.6508,52.99218,59.36056
1771356,284.5232,335.1211,54.89545,59.17128
1771389,306.0065,331.782,56.83213,58.9182
1771424,330.2066,328.2287,58.79749,58.64474
1771460,353.1162,327.6528,60.4734,58.60002
1771494,373.4395,325.1059,61.82819,58.40083
1771532,390.2404,319.7921,62.86465,57.97788
1771569,403.879,316.4716,63.65549,57.70841
1771602,415.6858,312.6729,64.30627,57.39515
1771635,423.6278,309.2643,64.72742,57.10941
1771671,429.8636,305.2196,65.04914,56.76455
1771705,434.9875,301.6259,65.30782,56.45272
1771740,437.0421,299.0337,65.41013,56.22456
1771774,438.0565,296.4829,65.46036,55.99738
1771808,436.4406,294.053,65.38026,55.77844
1771847,434.1507,291.5254,65.26591,55.54807
1771883,431.3381,288.4602,65.1241,55.26501
1771915,428.4069,284.9317,64.97468,54.93411
1771951,425.715,281.1804,64.83596,54.57624
1771985,422.8507,276.8719,64.68678,54.15732
1772021,420.0129,272.8961,64.53734,53.76307
1772054,416.4507,268.0823,64.3474,53.2756
1772090,412.1469,261.7685,64.11437,52.61895
1772126,407.0246,255.1043,63.83184,51.9038
1772158,401.3835,247.2466,63.514,51.03029
1772195,395.5083,238.987,63.17526,50.0752
1772232,389.4041,230.2783,62.81473,49.02522
1772301,379.2333,216.4006,62.19374,47.25552
1772343,373.3579,209.0234,61.82298,46.26379
1772381,368.8294,202.6474,61.53097,45.37672
1772402,366.3878,198.8137,61.37122,44.82957
1772414,363.1029,194.2654,61.15368,44.16669
1772442,360.9772,191.0944,61.01128,43.69555
1772456,358.6739,187.4874,60.85555,43.15046
1772490,356.3244,183.5831,60.6951,42.5493
1772505,353.9079,180.0111,60.52839,41.98896
1772526,351.6426,176.5342,60.37054,41.43391
1772550,349.1725,172.8244,60.19666,40.83102
1772575,346.9626,169.3728,60.03952,40.26007
1772601,344.8282,165.7134,59.88631,39.64403
1772629,342.7503,162.5078,59.73579,39.0952
1772658,340.0158,158.0721,59.53562,38.32145
1772689,337.5715,154.3792,59.35466,37.66441
1772724,334.73,150.8986,59.14183,37.03431
1772759,331.6854,147.5441,58.91082,36.41695
1772794,328.99,144.8955,58.7037,35.92249
1772828,326.7372,143.034,58.52867,35.57121
1772865,324.2672,141.4148,58.33474,35.26313
1772901,321.7309,140.3077,58.13337,35.05114
1772943,319.2485,140.7757,57.93404,35.1409
1772971,315.7388,141.9176,57.6484,35.35905
1773005,311.1105,144.4143,57.26472,35.83199
1773040,306.1634,147.9016,56.84559,36.48322
1773076,300.294,152.0627,56.33583,37.24622
1773111,293.2941,156.1313,55.70956,37.97762
1773146,285.7684,159.9203,55.01307,38.64588
1773180,278.231,163.894,54.29039,39.33359
1773213,272.6484,168.4118,53.73826,40.09936
1773249,268.8279,173.3884,53.35184,40.9234
1773284,266.0678,178.7,53.06825,41.78079
1773330,264.0119,185.3129,52.85456,42.81709
1773367,263.0786,192.1843,52.75685,43.85833
1773392,262.9452,199.6501,52.74284,44.94983
1773426,263.2388,208.2007,52.77365,46.15092
1773463,264.574,216.2163,52.91319,47.23119
1773497,265.6199,225.4764,53.02188,48.42662
1773534,266.0883,233.7651,53.07037,49.45103
1773571,265.3987,242.2616,52.99893,50.45849
1773605,263.9527,249.668,52.84837,51.30304
1773641,260.5514,255.8241,52.49005,51.98216
1773680,257.4267,262.8048,52.15565,52.7281
1773714,256.9541,270.0811,52.10463,53.47937
1773746,257.4367,278.2276,52.15672,54.29006
1773782,257.922,284.0748,52.20899,54.85292
1773815,258.8046,288.1344,52.30373,55.23469
1773851,259.1156,291.8619,52.33702,55.5789
1773886,259.1034,294.798,52.33572,55.84583
1773922,258.3317,297.1248,52.25302,56.05479
1773957,256.9991,299.3514,52.10949,56.25267
1773992,255.3213,302.0445,51.92746,56.4893
1774029,253.4364,304.3353,51.72118,56.68829
1774064,251.1217,306.704,51.46526,56.89185
1774097,248.3342,308.3994,51.1532,57.0362
1774130,244.3596,309.5661,50.70084,57.13489
1774167,239.6884,310.5297,50.15781,57.216
1774203,234.6022,312.6178,49.55218,57.39056
1774239,229.3089,313.8677,48.90552,57.49426
1774273,224.3504,315.2147,48.28419,57.60535
1774308,219.4118,317.9841,47.64995,57.83165
1774347,213.5541,321.4787,46.87718,58.11322
1774395,210.8856,322.8767,46.51758,58.22462
1774423,208.4531,324.6472,46.18559,58.36471
1774447,208.1211,325.6972,46.13996,58.44728
1774483,208.9087,327.0495,46.24808,58.55304
1774518,210.8734,328.1326,46.51593,58.63729
1774552,213.4355,328.7034,46.8613,58.68152
1774589,216.4607,328.9901,47.26345,58.7037
1774627,220.277,329.0973,47.7622,58.71199
1774658,226.5554,329.1835,48.56237,58.71865
1774702,239.23,328.94,50.10385,58.69983
1774741,251.0778,328.9622,51.46037,58.70154
1774768,261.9199,330.2197,52.63492,58.79849
1774792,272.4125,332.1754,53.71461,58.94821
1774826,283.6526,333.147,54.8128,59.02211
1774857,294.1334,334.9025,55.78572,59.15483
1774891,303.3904,336.0504,56.60647,59.24106
1774927,312.1349,336.2432,57.35034,59.2555
1774962,318.8661,339.2854,57.90313,59.48175
1774997,325.3635,341.4628,58.42108,59.64184
1775031,331.0474,344.0187,58.86201,59.82783
1775069,336.206,347.3943,59.25271,60.07034
1775105,340.8092,349.7777,59.59394,60.23944
1775136,345.5055,351.9808,59.93508,60.39421
1775175,348.9325,354.6855,60.17967,60.58223
1775209,352.9504,357.8808,60.46186,60.80156
1775241,356.3069,360.1842,60.6939,60.95784
1775278,358.2799,360.7924,60.82875,60.99885
1775311,360.4155,361.0955,60.97344,61.01924
1775348,361.829,360.5768,61.06849,60.98432
1775383,362.5172,360.6761,61.11457,60.99101
1775418,363.1741,360.69,61.15842,60.99195
1775454,362.9115,360.0689,61.1409,60.95005
1775488,361.9716,358.8126,61.07805,60.86497
1775526,360.9279,358.1953,61.00797,60.82299
1775559,359.8911,357.4985,60.93803,60.77548
1775596,359.2434,356.9,60.8942,60.73455
1775635,358.8059,356.6096,60.86451,60.71466
1775670,358.496,356.1347,60.84345,60.68208
1775701,358.2245,355.4958,60.82498,60.63813
1775737,358.3743,354.8683,60.83517,60.59485
1775771,358.4528,354.3224,60.84052,60.55711
1775806,358.5981,354.1699,60.8504,60.54655
1775843,358.9186,353.1669,60.87216,60.47693
1775877,359.5795,352.6512,60.91696,60.44102
1775912,360.6288,352.0074,60.98783,60.39606
1775947,362.7816,350.8329,61.13223,60.31375
1775981,368.4812,347.4194,61.50829,60.07212
1776016,375.3417,345.3129,61.94918,59.92123
1776051,380.4377,341.5583,62.26863,59.64883
1776086,384.2547,337.5425,62.50356,59.3525
1776128,386.3471,334.0742,62.63079,59.09233
1776155,388.861,330.0747,62.78222,58.78734
1776190,391.9174,325.8867,62.96425,58.46213
1776227,395.4127,321.152,63.16969,58.08708
1776263,399.5656,315.9655,63.41003,57.66699
1776297,404.7432,311.201,63.70416,57.2723
1776331,409.2166,306.381,63.95345,56.86422
1776368,412.8817,303.8694,64.15443,56.64798
1776401,415.5128,300.0286,64.29695,56.31245
1776437,416.2934,295.1966,64.33896,55.88179
1776471,414.7357,288.9092,64.25501,55.30673
1776510,411.9074,283.9147,64.1013,54.83772
1776541,411.7738,280.2059,64.09399,54.48224
1776576,412.9415,275.4228,64.15769,54.01448
1776612,414.5659,269.8387,64.24583,53.45476
1776648,417.3325,264.1022,64.39467,52.86398
1776684,420.1709,259.0671,64.5457,52.33183
1776718,423.1307,254.7231,64.70143,51.86219
1776752,426.5438,250.8105,64.87882,51.43063
1776788,429.9222,247.1176,65.05213,51.01567
1776824,432.5991,243.8218,65.18787,50.63896
1776858,434.6504,240.8118,65.29095,50.28955
1776900,436.0532,238.569,65.36098,50.02582
1776930,437.3649,236.6497,65.42614,49.79781
1776966,437.9731,235.3739,65.45624,49.64505
1777002,437.6406,234.0476,65.43979,49.48521
1777034,436.8892,233.7519,65.40255,49.44944
1777071,435.4312,233.3289,65.32998,49.39817
1777106,433.5053,232.9182,65.23351,49.34828
1777144,432.833,232.6935,65.19966,49.32095
1777177,432.8716,232.6767,65.20161,49.3189
1777213,432.9309,232.3991,65.2046,49.2851
1777244,433.3538,232.4081,65.22588,49.28619
1777278,433.6015,231.7625,65.23834,49.20737
1777315,433.6199,231.04,65.23927,49.11887
1777352,433.625,230.3802,65.23952,49.03777
1777401,433.9611,230.0866,65.2564,49.0016
1777427,434.1474,230.0136,65.26575,48.9926
1777456,434.3539,229.9347,65.2761,48.98285
1777494,434.4716,230.4072,65.28201,49.04109
1777530,434.6133,231.3171,65.2891,49.15285
1777568,434.5854,231.624,65.2877,49.19043
1777607,434.5505,231.812,65.28596,49.21342
1777637,434.6213,231.8384,65.2895,49.21664
1777669,434.9139,231.8641,65.30414,49.2198
1777704,435.4393,231.6006,65.33038,49.18757
1777738,436.0599,231.8791,65.36132,49.22163
1777774,435.8819,231.64,65.35246,49.19238
1777810,435.6632,231.9722,65.34155,49.23301
1777843,434.9147,232.4407,65.30418,49.29016
1777884,434.2789,232.8109,65.27235,49.33524
1777913,433.6261,233.5271,65.23958,49.42221
1777946,432.7664,234.4083,65.1963,49.52879
1777987,431.8067,234.688,65.14783,49.56252
1778017,431.0936,235.5483,65.1117,49.66599
1778053,430.1553,236.5789,65.064,49.78935
1778090,429.2946,237.2111,65.0201,49.86472
1778125,428.6878,238.2453,64.98907,49.98752
1778157,428.1626,239.0621,64.96214,50.08406
1778193,427.7571,239.051,64.94132,50.08275
1778228,427.9441,239.0548,64.95093,50.08319
1778261,427.6431,238.9955,64.93546,50.0762
1778297,427.3408,238.9366,64.91991,50.06924
1778331,426.9875,238.701,64.90171,50.04143
1778367,426.4578,238.9509,64.87438,50.07094
1778405,426.0085,239.7514,64.85115,50.16522
1778438,425.3184,240.3053,64.81541,50.23025
1778473,423.8704,241.1804,64.74007,50.33262
1778512,421.8327,242.9234,64.63336,50.53521
1778550,418.3612,244.864,64.4496,50.75874
1778582,414.6045,246.5022,64.24792,50.94579
1778617,410.2832,248.0449,64.01224,51.12057
1778653,405.0507,251.3289,63.72144,51.48828
1778690,399.6705,256.6871,63.41606,52.07575
1778725,393.7898,262.2144,63.07466,52.66599
1778760,388.8028,267.6079,62.77873,53.22696
1778796,384.3714,273.5693,62.51068,53.83035
1778830,379.6289,279.4463,62.21838,54.40866
1778865,372.4475,284.0863,61.76472,54.85402
1778900,366.6002,286.5358,61.38517,55.08523
1778937,362.9028,289.123,61.14033,55.32656
