Time Stamp(ms),Intersection,,Angle,
,x,y,x,y
1817909,325.3942,248.4925,58.42349,51.17104
1817944,325.3063,248.5186,58.41659,51.17398
1817977,325.1953,248.5018,58.40786,51.17208
1818011,325.2751,248.2175,58.41413,51.14005
1818045,325.2741,248.179,58.41405,51.1357
1818077,325.2267,248.287,58.41033,51.14788
1818113,325.2901,248.2003,58.41531,51.1381
1818148,325.4581,247.9561,58.4285,51.11055
1818184,325.55,247.7705,58.43572,51.08958
1818219,325.5003,247.9113,58.43182,51.10549
1818255,325.4723,247.7944,58.42962,51.09228
1818294,325.4421,247.6864,58.42725,51.08007
1818327,325.4847,247.6162,58.4306,51.07213
1818361,325.4557,247.6787,58.42833,51.0792
1818396,325.4502,247.7211,58.42789,51.084
1818431,325.3964,247.7982,58.42366,51.0927
1818470,325.4822,247.7394,58.4304,51.08606
1818505,325.5057,247.8887,58.43225,51.10294
1818538,325.4787,248.0566,58.43012,51.12189
1818573,325.4234,248.3134,58.42578,51.15085
1818610,325.3557,248.7742,58.42046,51.20274
1818644,325.1949,249.724,58.40783,51.30931
1818681,324.974,251.189,58.39045,51.47274
1818720,324.5293,253.3445,58.35542,51.71107
1818750,323.084,256.8781,58.24109,52.09641
1818790,320.9489,261.8753,58.07081,52.63022
1818822,317.7479,268.5024,57.81247,53.31859
1818857,314.258,274.7716,57.52652,53.94998
1818889,310.0671,281.753,57.1771,54.63128
1818929,306.0827,288.4821,56.83867,55.26706
1818964,302.2206,297.6028,56.50467,56.09745
1819000,300.0933,304.868,56.31816,56.73426
1819032,297.4127,314.1062,56.0805,57.51398
1819065,293.2011,324.1115,55.7011,58.32244
1819102,289.473,333.707,55.35899,59.06456
1819135,285.6798,342.6903,55.00473,59.73142
1819169,281.4954,351.3578,54.60654,60.35059
1819207,277.3019,360.5123,54.19952,60.97997
1819242,273.754,367.9142,53.84877,61.47128
1819275,270.7449,375.436,53.54661,61.95515
1819311,268.4602,381.9256,53.31428,62.36065
1819347,267.0003,385.7841,53.16449,62.59666
1819380,266.1973,389.143,53.08164,62.79911
1819415,265.9741,391.3447,53.05856,62.93032
1819448,266.0024,393.0198,53.06149,63.02936
1819485,266.8544,393.0161,53.14946,63.02914
1819518,268.1841,392.3824,53.28603,62.99175
1819555,270.4265,390.4899,53.51439,62.87951
1819606,274.6524,388.3125,53.93814,62.74931
1819633,279.1489,386.4351,54.37979,62.63612
1819663,286.2118,384.1315,55.05479,62.49603
1819696,295.6165,378.7374,55.9196,62.1628
1819735,305.7232,372.3762,56.80783,61.76014
1819769,316.2558,367.507,57.69076,61.44464
1819806,326.3257,363.829,58.49651,61.20202
1819840,338.9936,354.6538,59.46018,60.58004
1819874,350.7931,344.5638,60.31095,59.86724
1819913,361.2358,334.7329,61.02868,59.14205
1819948,371.3358,324.9588,61.69327,58.38925
1819983,379.8152,312.312,62.22997,57.3651
1820018,387.2208,299.6828,62.68359,56.28195
1820050,395.4606,288.7029,63.17248,55.28758
1820086,403.8916,278.6872,63.6562,54.33487
1820118,410.9596,269.4553,64.04939,53.41579
1820152,417.3689,259.2322,64.39661,52.34949
1820193,422.5268,251.0485,64.6698,51.45711
1820226,425.8478,244.4967,64.84284,50.71659
1820259,428.8377,238.4009,64.99674,50.00594
1820292,431.0604,232.3805,65.11002,49.28283
1820330,434.1381,225.066,65.26528,48.3748
1820366,436.6968,219.5261,65.39299,47.66481
1820399,439.9918,213.2197,65.55564,46.83238
1820436,442.8325,207.045,65.69425,45.99155
1820469,446.3145,201.3171,65.86216,45.18805
1820504,449.8845,196.3346,66.03205,44.47013
1820538,452.7648,191.5572,66.16749,43.76477
1820576,454.8507,186.576,66.26468,43.01118
1820609,456.1716,183.0895,66.32584,42.47247
1820644,456.6732,180.2946,66.34898,42.03381
1820678,456.5416,177.4161,66.34292,41.57561
1820718,456.9374,174.6097,66.36117,41.12254
1820753,458.3474,173.067,66.42594,40.87078
1820785,460.4409,171.6759,66.5215,40.64211
1820819,462.6102,170.2549,66.61975,40.4069
1820853,464.0074,168.9704,66.68262,40.19286
1820891,464.375,167.5221,66.69911,39.94989
1820925,463.6379,165.93,66.66603,39.68079
1820960,463.5592,164.4654,66.66249,39.43138
1820993,462.9153,163.6976,66.63351,39.29992
1821032,461.6306,162.7839,66.57548,39.14282
1821069,460.0837,162.0875,66.50525,39.02261
1821100,458.0266,161.4775,66.41122,38.91698
1821133,455.5406,161.8179,66.29666,38.97596
1821168,452.311,162.3776,66.14625,39.07272
1821203,448.7128,163.4423,65.97654,39.25608
1821237,447.8409,161.9227,65.93507,38.9941
1821272,445.7594,162.6105,65.83554,39.11293
1821309,439.5402,164.8362,65.53347,39.49469
1821341,432.1834,165.8021,65.16689,39.65908
1821377,425.9926,166.3567,64.85033,39.75313
1821411,419.6532,167.1984,64.51828,39.89536
1821447,412.1156,169.1892,64.11266,40.22942
1821483,405.4949,169.6069,63.74636,40.2991
1821515,396.9961,170.7621,63.2618,40.49104
1821552,386.7778,170.8524,62.65684,40.506
1821587,374.3413,169.1141,61.88567,40.21688
1821620,363.2121,167.7773,61.16095,39.99282
1821654,353.3134,167.1602,60.48711,39.88891
1821691,344.401,166.9539,59.85548,39.8541
1821725,335.7088,167.3369,59.21544,39.91869
1821761,326.3958,166.127,58.50199,39.71421
1821795,315.6008,164.0829,57.63708,39.36595
1821831,304.3271,167.2136,56.68758,39.89792
1821866,290.6538,171.4038,55.46799,40.5972
1821900,278.851,175.3468,54.35081,41.24215
1821936,268.678,179.1413,53.33654,41.85101
1821970,258.2548,182.957,52.24476,42.4518
1822008,250.7481,187.3376,51.42368,43.12762
1822040,245.4242,187.2546,50.82288,43.11496
1822074,241.7287,188.7555,50.39653,43.34322
1822110,238.073,189.4031,49.96711,43.44119
1822148,235.7009,190.67,49.68429,43.63192
1822183,234.3601,191.4714,49.52297,43.75195
1822216,233.6305,192.4983,49.43473,43.90506
1822252,233.4972,193.5893,49.41858,44.06686
1822287,233.3067,194.5602,49.39547,44.21011
1822321,232.8479,195.0422,49.33974,44.28098
1822355,232.2411,195.3814,49.26583,44.33074
1822398,231.6662,196.8313,49.19559,44.5425
1822434,231.4151,199.1717,49.16485,44.88111
1822459,231.4829,201.0688,49.17315,45.15269
1822497,232.0915,202.631,49.24757,45.3744
1822534,232.827,205.0564,49.33719,45.7152
1822570,233.24,207.8409,49.38738,46.1014
1822602,233.0309,210.1302,49.36198,46.41491
1822643,232.6255,212.3603,49.31267,46.71689
1822672,232.1426,214.4004,49.2538,46.99022
1822708,231.2778,216.6928,49.14803,47.29406
1822760,230.7834,218.6715,49.08736,47.55353
1822781,230.2693,220.3769,49.02411,47.77512
1822805,229.7967,221.9903,48.96583,47.98304
1822836,229.3344,223.7584,48.90868,48.20898
1822871,228.8993,224.9351,48.85478,48.35826
1822907,228.3935,225.53,48.79196,48.43338
1822942,227.7669,225.8845,48.71394,48.47806
1822976,226.8509,225.984,48.59943,48.49058
1823011,225.2566,225.6695,48.39889,48.45098
1823056,223.8172,225.8456,48.21646,48.47316
1823086,221.693,225.5342,47.94485,48.43392
1823121,218.4924,224.6928,47.53014,48.32758
1823156,212.5878,222.7408,46.74751,48.07919
1823190,203.1229,222.4124,45.44384,48.03716
1823226,194.9521,222.4394,44.26775,48.04062
1823262,190.5007,223.428,43.60649,48.1669
1823295,186.2438,224.2613,42.96025,48.27288
1823328,182.6153,224.9657,42.39847,48.36212
1823366,180.2447,225.6577,42.02592,48.44948
1823402,179.2926,226.1814,41.87505,48.5154
1823435,178.7898,226.6064,41.79509,48.56878
1823471,178.362,227.0943,41.72689,48.62991
1823506,177.8293,228.1796,41.64178,48.76535
1823542,177.604,229.3427,41.60572,48.90971
1823575,176.9007,230.4568,41.49286,49.04719
1823613,176.0451,231.7953,41.35506,49.21138
1823645,175.6086,232.7509,41.28453,49.32794
1823680,175.4527,233.1004,41.2593,49.37042
1823714,175.2973,232.6841,41.23413,49.31981
1823751,175.3515,232.5691,41.2429,49.30581
1823786,175.4873,232.619,41.26489,49.31188
1823823,175.8733,232.3971,41.32732,49.28484
1823856,176.6801,232.4041,41.45739,49.28569
1823889,177.576,232.7363,41.60123,49.32616
1823926,178.2637,232.8881,41.71122,49.34462
1823959,179.4225,232.9432,41.89568,49.35132
1823994,180.294,233.1789,42.03371,49.37996
1824032,181.0319,233.3415,42.15012,49.39969
1824064,182.2686,233.2923,42.34426,49.39372
1824099,183.1336,233.2467,42.47933,49.38819
1824133,183.7651,233.0945,42.57759,49.36971
1824169,184.1651,233.1373,42.63966,49.3749
1824203,184.4585,233.0394,42.6851,49.36302
1824241,184.6771,233.1183,42.71893,49.3726
1824273,184.8976,233.231,42.75301,49.38628
1824309,185.089,233.4978,42.78256,49.41865
1824343,185.5286,233.812,42.85033,49.45671
1824381,186.0582,233.9985,42.93177,49.47928
1824414,186.59,233.8103,43.01333,49.45651
1824449,186.9613,234.473,43.07014,49.5366
1824483,187.096,236.013,43.09072,49.72169
1824516,188.3337,236.4732,43.27924,49.77674
1824550,188.9477,237.0448,43.37232,49.84492
1824587,189.6856,237.745,43.48383,49.92819
1824623,191.1062,238.2287,43.69732,49.98555
1824659,192.6327,238.6749,43.92503,50.03834
1824692,195.1651,238.7068,44.29902,50.04211
1824727,199.7231,238.8984,44.9603,50.06474
1824766,206.8845,238.7455,45.96935,50.04668
1824797,215.2942,238.831,47.1091,50.05679
1824834,221.7373,241.3453,47.95055,50.35186
1824867,227.5507,245.2653,48.68695,50.8047
1824902,236.2931,247.0709,49.75521,51.01038
1824935,243.8902,248.2429,50.64684,51.14291
1824972,251.332,248.7288,51.48862,51.19764
1825010,258.0955,249.0012,52.22765,51.22826
1825046,263.1849,248.9746,52.768,51.22527
1825081,266.2958,248.2019,53.09182,51.13829
1825113,268.5497,247.2354,53.32343,51.02903
1825148,269.8187,247.9132,53.45274,51.1057
1825184,270.0211,247.9908,53.47329,51.11446
1825218,270.0724,248.4693,53.4785,51.16842
1825255,269.6962,249.3929,53.44028,51.27222
1825290,269.672,249.9843,53.43783,51.33844
1825324,270.1356,250.0333,53.48491,51.34391
1825360,270.494,250.1874,53.52122,51.36114
1825394,271.0256,250.0954,53.57499,51.35085
1825430,271.6031,249.8766,53.63324,51.32639
1825465,272.1483,249.6519,53.68808,51.30124
1825500,273.0092,249.2219,53.77439,51.25303
1825535,274.0961,248.9831,53.88285,51.22622
1825569,275.4211,248.2618,54.01432,51.14503
1825608,277.5271,247.818,54.22158,51.09494
1825645,280.222,246.4713,54.4838,50.94228
1825677,283.5538,244.7206,54.8034,50.74229
1825714,287.5155,243.7599,55.17696,50.63182
1825748,293.0997,241.903,55.69187,50.41681
1825791,299.938,240.801,56.30447,50.28828
1825820,306.8832,239.4501,56.90716,50.12977
1825853,314.4569,237.396,57.54293,49.88673
1825892,320.5642,234.5702,58.03996,49.54831
1825929,325.9822,231.9501,58.46962,49.2303
1825965,330.5186,230.5162,58.82146,49.0545
1826000,334.2129,228.897,59.10281,48.85448
1826034,337.8178,226.3024,59.37298,48.53061
1826071,340.4201,224.3355,59.56536,48.2823
1826103,343.5126,221.3876,59.79117,47.90556
1826140,346.7339,218.6337,60.02317,47.5486
1826179,349.2499,215.643,60.20214,47.15535
1826210,351.308,211.8087,60.3471,46.64252
1826250,353.6414,208.4588,60.5099,46.18637
1826285,355.9038,204.4116,60.66621,45.625
1826317,357.9492,200.319,60.80622,45.04566
1826352,359.7118,196.3551,60.92591,44.47312
1826389,360.1875,192.9704,60.95806,43.97518
1826419,360.7733,188.4857,60.99755,43.30232
1826457,361.3073,185.5015,61.03348,42.84615
1826493,361.5162,182.6908,61.04751,42.41026
1826526,362.0787,180.1478,61.08523,42.0106
1826562,362.5332,178.3616,61.11564,41.72684
1826598,363.5048,176.4518,61.18045,41.42063
1826633,364.4179,175.295,61.24112,41.23376
1826671,365.7762,174.2436,61.33094,41.06297
1826703,367.1604,173.4889,61.42194,40.93982
1826737,368.4959,173.1234,61.50924,40.88001
1826784,370.3811,172.4356,61.63165,40.76719
1826811,371.3265,172.527,61.69267,40.78221
1826842,372.468,172.8252,61.76603,40.83115
1826878,373.9734,173.1134,61.86225,40.87838
1826913,375.4559,173.9158,61.95641,41.00954
1826950,376.6937,175.1091,62.03459,41.20363
1826984,378.1179,175.9488,62.12404,41.3395
1827018,380.0684,176.7343,62.24571,41.46612
1827053,381.8837,177.5905,62.35807,41.60355
1827096,383.8953,178.3174,62.4816,41.71978
1827131,386.0111,179.4167,62.61043,41.89476
1827159,388.3447,181.2894,62.75124,42.19064
1827197,393.15,185.8764,63.03703,42.90384
1827236,399.5159,192.8644,63.40718,43.95945
1827272,405.9384,200.1402,63.7712,45.02008
1827306,411.4289,205.9672,64.07512,45.84211
1827340,416.1561,210.9658,64.33157,46.52846
1827378,419.1042,215.1475,64.48914,47.08963
1827406,421.6336,218.4237,64.62289,47.52117
1827444,422.7178,221.8594,64.67982,47.96623
1827483,423.3398,226.6178,64.71237,48.5702
1827516,423.8707,230.0613,64.74009,48.99847
1827547,424.4968,234.1337,64.77271,49.49562
1827583,425.4496,237.3239,64.8222,49.87815
1827622,426.512,240.3708,64.87718,50.23793
1827654,427.3445,241.7784,64.9201,50.40232
1827690,427.8288,244.2566,64.94501,50.68901
1827724,427.5718,246.8898,64.9318,50.98983
1827757,426.9971,249.0946,64.90221,51.23874
1827795,426.8524,250.6147,64.89474,51.40881
1827830,426.9639,252.5214,64.9005,51.62035
1827867,427.1885,254.0192,64.91207,51.78515
1827900,427.7372,256.1774,64.9403,52.02052
