Time Stamp(ms),Intersection,,Angle,
,x,y,x,y
1934505,321.2093,259.0052,58.09167,52.3252
1934521,321.6121,258.9396,58.12387,52.31818
1934535,321.8637,259.0534,58.14396,52.33037
1934553,322.0161,259.1061,58.15612,52.336
1934569,322.0304,258.9848,58.15726,52.32302
1934586,321.9991,258.8042,58.15477,52.30368
1934603,322.0108,258.8759,58.1557,52.31137
1934620,321.9973,258.8195,58.15462,52.30533
1934635,321.8766,258.7616,58.14499,52.29913
1934653,321.7593,258.8856,58.13563,52.31241
1934669,321.6796,259.1244,58.12927,52.33796
1934686,321.7354,259.2655,58.13373,52.35305
1934703,321.8364,259.3815,58.14179,52.36544
1934720,321.9481,259.2868,58.1507,52.35532
1934736,322.1599,259.2499,58.16759,52.35138
1934753,322.3172,259.455,58.18012,52.37329
1934770,322.4146,259.8923,58.18787,52.41994
1934787,322.2799,260.3871,58.17715,52.47259
1934804,321.6639,261.2903,58.12801,52.5684
1934822,320.932,261.8915,58.06946,52.63194
1934837,319.9514,262.2147,57.99071,52.66602
1934853,318.2465,262.646,57.85295,52.71141
1934871,316.4085,263.1837,57.70325,52.76787
1934889,314.4129,263.8604,57.53931,52.83872
1934904,311.7125,264.5544,57.31508,52.91115
1934920,308.9848,265.3913,57.08578,52.99817
1934937,305.7556,266.3985,56.81061,53.10243
1934954,302.3119,267.5104,56.51264,53.21694
1934970,298.9815,268.8809,56.21995,53.35725
1934987,295.2047,270.5956,55.88252,53.53151
1935004,291.6036,272.4278,55.55523,53.71614
1935020,287.8146,274.6342,55.20488,53.93634
1935036,283.1567,277.2346,54.76557,54.19292
1935054,279.2553,279.3051,54.39012,54.39496
1935071,274.8478,281.4816,53.95754,54.60522
1935088,270.2682,283.6259,53.49835,54.81026
1935105,265.7856,285.8197,53.03905,55.01791
1935123,261.2345,288.0837,52.56248,55.22997
1935139,256.8979,290.3039,52.09855,55.43575
1935156,252.1232,292.7738,51.57634,55.66219
1935173,247.5734,295.3251,51.06729,55.89337
1935190,243.3391,297.7005,50.58327,56.10616
1935206,239.1435,300.1966,50.09366,56.32725
1935222,235.0552,302.772,49.60674,56.55273
1935240,231.3768,305.2142,49.16017,56.76408
1935257,227.9092,307.713,48.73168,56.97789
1935271,224.1722,310.3539,48.26157,57.20124
1935291,221.0506,312.8091,47.86215,57.40647
1935307,217.4642,315.4789,47.39552,57.62707
1935325,213.6865,318.2646,46.89489,57.85442
1935340,209.4908,321.2553,46.32772,58.09535
1935355,205.1574,324.1582,45.7293,58.32613
1935372,201.3005,326.5786,45.18568,58.51628
1935389,198.0788,328.3877,44.72348,58.65707
1935406,195.153,330.0728,44.29723,58.7872
1935423,192.6965,331.5081,43.93452,58.89727
1935439,190.3618,332.8771,43.58562,59.00161
1935457,188.0998,334.1957,43.24371,59.10151
1935477,186.0051,335.3141,42.92361,59.18579
1935496,184.4714,336.0674,42.68711,59.24233
1935509,183.4192,336.1297,42.52381,59.247
1935524,181.9954,336.4767,42.30148,59.27297
1935542,180.8644,336.7219,42.12373,59.2913
1935557,179.9544,336.5356,41.98,59.27738
1935573,179.3743,336.4193,41.88802,59.26868
1935592,179.1304,336.3349,41.84927,59.26236
1935608,179.4917,336.0498,41.90666,59.24101
1935624,179.768,335.8498,41.95048,59.22602
1935641,180.6853,335.0961,42.09549,59.1694
1935657,181.4895,334.6507,42.22209,59.13585
1935674,182.4398,334.2563,42.37104,59.10609
1935690,184.0447,333.4642,42.62099,59.04617
1935708,185.4448,332.6848,42.83741,58.98699
1935727,186.9659,332.0905,43.07084,58.94174
1935753,188.4277,331.4753,43.29351,58.89476
1935765,189.6179,330.9189,43.4736,58.85217
1935775,191.9143,329.8608,43.81808,58.77089
1935797,195.6304,328.6483,44.36721,58.67726
1935812,198.9185,327.5634,44.84466,58.59306
1935825,208.0034,324.6466,46.12376,58.36467
1935844,217.5333,321.6829,47.40458,58.12953
1935859,230.0593,317.6352,48.99823,57.8033
1935875,242.1775,314.0892,50.44873,57.51258
1935891,255.0996,311.1423,51.90329,57.26739
1935908,269.5345,309.0601,53.42384,57.09215
1935925,280.4683,307.3105,54.50759,56.94361
1935941,292.8147,305.411,55.66591,56.78101
1935958,305.035,304.2587,56.74865,56.68167
1935974,315.8146,303.3193,57.65461,56.60029
1935991,326.3205,302.3273,58.49611,56.51398
1936007,336.5938,301.3733,59.28172,56.4306
1936026,344.8872,301.0396,59.89057,56.40136
1936043,351.812,300.5404,60.3824,56.35751
1936058,359.7959,300.0006,60.9316,56.30999
1936076,365.5107,299.6545,61.31342,56.27945
1936094,369.7924,299.6295,61.59352,56.27725
1936109,373.7206,299.3973,61.84613,56.25673
1936125,376.9974,299.3789,62.05371,56.2551
1936141,379.8712,299.4393,62.23346,56.26044
1936158,382.1415,299.666,62.37395,56.28047
1936174,383.2987,300.1649,62.44506,56.32446
1936191,384.0914,300.5518,62.49358,56.35851
1936208,384.3105,300.8344,62.50696,56.38334
1936226,384.8175,301.0693,62.53789,56.40396
1936242,385.1455,301.1346,62.55786,56.40969
1936258,385.2211,301.118,62.56245,56.40823
1936274,385.5198,301.1136,62.58061,56.40784
1936291,385.7258,301.192,62.59312,56.41471
1936309,386.22,300.9952,62.62309,56.39745
1936326,386.7509,300.9026,62.65522,56.38932
1936343,386.9901,301.0196,62.66967,56.3996
1936359,387.0903,301.1854,62.67572,56.41413
1936376,387.0802,301.2969,62.67511,56.42391
1936393,386.9834,301.153,62.66927,56.4113
1936410,387.0814,301.0618,62.67518,56.4033
1936427,387.0124,301.1399,62.67101,56.41015
1936442,386.7975,301.0728,62.65803,56.40426
1936458,386.6156,301.2043,62.64704,56.41579
1936475,386.5262,301.0955,62.64162,56.40625
1936493,386.5186,300.7862,62.64117,56.3791
1936508,386.609,300.4745,62.64664,56.35171
1936526,386.6264,300.3034,62.64769,56.33666
1936544,386.5627,300.0681,62.64383,56.31594
1936559,386.5484,299.9072,62.64297,56.30175
1936575,386.5144,299.5577,62.64091,56.27091
1936594,386.4799,299.2763,62.63882,56.24604
1936609,386.4656,298.9352,62.63796,56.21584
1936627,386.3945,298.7687,62.63366,56.20109
1936643,386.2725,298.5437,62.62627,56.18113
1936660,386.2497,298.343,62.62489,56.16331
1936677,386.1246,298.1195,62.61731,56.14345
1936693,386.0338,297.8771,62.6118,56.12189
1936710,385.8698,297.391,62.60186,56.07856
1936728,385.7392,296.7705,62.59394,56.02312
1936745,385.5008,296.0278,62.57946,55.95655
1936762,385.3235,295.4135,62.56868,55.90133
1936785,385.0666,294.613,62.55306,55.82912
1936802,384.86,294.0425,62.54047,55.77749
1936812,384.7118,293.3846,62.53145,55.71778
1936831,384.3909,292.514,62.51188,55.63849
1936846,384.1403,291.3107,62.49657,55.52837
1936863,384.2472,290.0405,62.5031,55.41145
1936887,383.93,288.4918,62.48372,55.26796
1936904,383.7958,286.8323,62.47551,55.11304
1936916,384.0891,285.5422,62.49344,54.99176
1936930,384.0768,284.002,62.49269,54.84601
1936951,383.9274,282.098,62.48356,54.66437
1936963,383.5664,279.7972,62.46147,54.44268
1936978,383.0419,277.9072,62.42931,54.25876
1936995,382.3369,275.7885,62.38598,54.05062
1937013,381.6673,273.6952,62.34472,53.84291
1937029,381.1469,271.6287,62.31256,53.63581
1937044,381.1787,269.3979,62.31453,53.40994
1937061,381.9498,266.7624,62.36214,53.13997
1937077,382.6435,264.6654,62.40484,52.92271
1937093,383.423,262.5471,62.45268,52.701
1937111,383.992,260.3535,62.48751,52.46902
1937131,384.6049,258.4679,62.52493,52.26763
1937144,385.1335,256.6705,62.55713,52.07395
1937160,385.5614,255.191,62.58314,51.91326
1937176,386.0569,254.1664,62.61321,51.80129
1937192,386.2043,253.7103,62.62214,51.75126
1937210,386.5495,253.4521,62.64304,51.72289
1937227,385.9112,253.5966,62.60437,51.73878
1937244,385.6765,253.3382,62.59013,51.71037
1937270,386.2499,253.5106,62.6249,51.72933
1937286,386.187,254.2489,62.62109,51.81032
1937299,385.8486,255.3547,62.60058,51.93109
1937312,385.0009,257.083,62.54906,52.11855
1937330,384.4998,258.58,62.51852,52.27966
1937348,384.1958,260.526,62.49996,52.48735
1937361,382.8405,262.3638,62.41695,52.68172
1937379,382.888,263.4054,62.41986,52.79111
1937394,383.3841,264.8245,62.4503,52.93927
1937411,383.8486,266.8297,62.47874,53.14691
1937429,383.8227,268.4523,62.47715,53.31348
1937445,384.2663,269.6092,62.50426,53.43145
1937461,384.6834,271.0179,62.52972,53.5742
1937481,384.8891,272.5318,62.54225,53.72657
1937499,384.9111,274.3342,62.54359,53.90653
1937514,385.1599,275.716,62.55873,54.04346
1937530,385.7447,276.8554,62.59427,54.1557
1937545,385.9916,277.6885,62.60925,54.23738
1937565,386.3011,278.3647,62.628,54.30344
1937577,386.7764,278.8376,62.65676,54.34951
1937593,387.0115,279.0124,62.67096,54.36651
1937610,387.2749,279.0365,62.68686,54.36886
1937628,387.5082,278.3947,62.70092,54.30637
1937644,387.7006,278.1422,62.71251,54.28173
1937661,388.2085,278.9979,62.74306,54.3651
1937677,388.0973,279.4951,62.73638,54.4134
1937694,388.4438,279.1771,62.75719,54.38252
1937711,389.2079,278.5879,62.80299,54.32519
1937727,389.4706,278.4786,62.8187,54.31454
1937750,389.3769,278.4459,62.8131,54.31135
1937762,389.507,278.6104,62.82088,54.32739
1937779,389.5741,278.537,62.82489,54.32024
1937795,389.7542,278.2442,62.83564,54.29168
1937813,390.0225,278.1211,62.85166,54.27966
1937830,390.0892,278.1359,62.85564,54.28111
1937849,390.293,277.8862,62.86779,54.25672
1937870,390.4388,277.7734,62.87647,54.24569
1937879,390.7975,277.5273,62.89781,54.2216
1937893,391.063,277.1923,62.91359,54.18877
1937911,391.2992,276.9732,62.92762,54.16727
1937930,391.9481,276.4335,62.96607,54.11422
1937949,392.7949,275.7691,63.0161,54.04871
1937967,393.5435,275.2982,63.06018,54.00216
1937981,394.4799,274.8507,63.11515,53.95782
1937998,395.3049,274.7132,63.16339,53.94418
1938011,396.8092,275.3916,63.25096,54.0114
1938028,397.9143,275.9573,63.31495,54.06729
1938047,398.6773,275.8213,63.35896,54.05386
1938061,400.8758,275.1541,63.48504,53.9879
1938078,402.6721,274.995,63.58724,53.97213
1938094,404.3598,275.318,63.68259,54.00412
1938110,406.4938,276.1828,63.80224,54.08952
1938128,408.2478,277.2096,63.89983,54.19047
1938144,410.3891,278.5704,64.01807,54.32349
1938162,412.2547,279.4332,64.12026,54.40739
1938179,414.2881,279.9168,64.2308,54.45427
1938194,417.3308,280.437,64.39458,54.50458
1938212,420.297,281.2596,64.55238,54.58387
1938229,423.7013,282.1072,64.73125,54.66525
1938248,427.3177,283.1104,64.91872,54.76116
1938261,431.4516,284.4416,65.12985,54.88771
1938282,435.768,285.4213,65.34678,54.98036
1938295,440.0498,286.7103,65.55849,55.10159
1938311,444.6837,288.5028,65.78379,55.26897
1938328,449.3861,290.4011,66.00847,55.44472
1938345,453.4102,292.3487,66.19765,55.6234
1938363,457.9558,294.3459,66.40798,55.80497
1938379,461.7476,296.2336,66.58077,55.97503
1938396,465.192,298.0161,66.73568,56.13425
1938414,468.6133,299.6491,66.88764,56.27898
1938430,471.8281,301.2837,67.02872,56.42275
1938448,474.3793,302.8522,67.13954,56.5597
1938464,476.705,304.3387,67.23968,56.68858
1938481,478.7202,305.4679,67.32578,56.7859
1938498,480.3152,306.542,67.39349,56.87799
1938515,481.722,307.8452,67.45289,56.98914
1938537,482.4959,308.657,67.48544,57.05804
1938549,483.3424,309.5664,67.52095,57.13492
1938564,484.1212,310.25,67.55351,57.1925
1938581,484.9601,311.1605,67.5885,57.26891
1938600,485.2099,312.2283,67.5989,57.35813
1938615,485.7241,313.2737,67.62027,57.44505
1938634,485.9974,314.1974,67.63161,57.52152
1938650,485.9674,315.1788,67.63037,57.6024
1938666,485.7476,315.92,67.62125,57.66326
1938682,485.3542,317.0333,67.6049,57.75428
1938699,484.8441,318.0759,67.58367,57.83911
1938716,484.3329,319.2929,67.56236,57.93762
1938733,483.822,320.366,67.54102,58.02405
1938751,483.4065,321.3084,67.52363,58.0996
1938765,482.8153,322.0475,67.49885,58.15863
1938783,482.2954,322.7668,67.47701,58.21589
1938798,481.6758,323.5627,67.45094,58.27904
1938816,480.9835,324.0801,67.42175,58.31997
1938832,480.3076,324.6781,67.39316,58.36715
1938850,479.5029,324.855,67.35905,58.38109
1938868,478.8468,325.0432,67.33116,58.39589
1938883,478.2263,325.3586,67.30473,58.4207
1938903,477.8861,325.8627,67.29021,58.46025
1938915,477.5236,326.5851,67.27473,58.51679
1938932,477.0018,327.2489,67.2524,58.56858
1938948,476.6656,327.8365,67.23799,58.6143
1938964,476.3467,328.5975,67.2243,58.67332
1938981,476.174,329.3094,67.21689,58.72837
1938998,476.1554,330.0228,67.21609,58.78336
1939015,476.1408,330.7719,67.21546,58.8409
1939032,476.0314,331.6038,67.21075,58.90459
1939049,475.9701,332.3755,67.20812,58.96346
1939067,476.3613,332.7724,67.22493,58.99365
1939084,476.8243,333.11,67.24479,59.0193
1939100,477.4411,333.2759,67.27119,59.03189
1939117,478.6212,332.9628,67.32156,59.00812
1939133,479.6932,332.7063,67.36713,58.98862
1939149,480.8994,332.2982,67.41819,58.95757
1939165,482.3728,331.8981,67.48027,58.92706
1939182,483.6463,331.4876,67.53367,58.8957
1939203,484.923,330.7814,67.58696,58.84163
1939217,485.9713,330.1816,67.63053,58.79557
1939235,486.8135,329.6455,67.66543,58.75429
1939250,487.3528,329.0698,67.68772,58.70987
1939270,487.6142,328.497,67.69851,58.66554
1939285,487.6487,327.8761,67.69993,58.61737
1939300,487.5469,327.3174,67.69573,58.57392
1939315,487.3117,326.6264,67.68602,58.52001
1939335,486.9715,325.6104,67.67197,58.44046
1939351,486.803,324.8886,67.66499,58.38373
1939369,486.6462,324.4298,67.6585,58.34758
1939384,486.1785,323.8881,67.63913,58.30478
1939401,485.7382,322.8847,67.62086,58.22526
1939419,485.5367,322.0608,67.61249,58.15968
1939434,485.209,321.3191,67.59886,58.10045
1939452,484.9055,320.5103,67.58623,58.03564
1939468,484.7459,319.8349,67.57958,57.98132
1939486,484.7769,319.0688,67.58087,57.91953
1939502,484.736,318.4221,67.57916,57.86719
1939517,484.9111,317.8588,67.58646,57.82148
1939533,484.707,317.2952,67.57796,57.77562
1939551,483.949,316.8119,67.54632,57.73622
1939569,482.6289,316.3063,67.49103,57.6949
1939585,480.348,315.6567,67.39487,57.64167
1939600,476.0772,314.7233,67.21272,57.5649
1939617,472.1819,313.98,67.04416,57.50354
1939633,468.0024,313.145,66.86064,57.43437
1939650,463.4162,312.2941,66.65606,57.36361
1939667,458.6205,311.384,66.43845,57.28762
1939684,454.6645,310.583,66.25603,57.22048
1939701,451.2573,310.0358,66.09679,57.17447
1939716,447.7843,309.7285,65.93238,57.14858
1939733,444.5845,309.3848,65.77901,57.11959
1939750,441.4978,309.0143,65.62931,57.08828
1939768,439.2652,308.2631,65.51995,57.02464
1939784,436.8622,307.7486,65.40121,56.98092
1939802,434.6909,307.4176,65.29298,56.95274
1939817,432.8191,307.3138,65.19897,56.9439
1939834,430.9813,307.1359,65.106,56.92873
1939852,429.2707,307.0915,65.01888,56.92494
1939868,427.588,306.8816,64.93262,56.90702
1939886,426.1574,306.5992,64.85886,56.88289
1939901,424.7424,306.4727,64.78549,56.87207
1939917,423.5779,306.4655,64.72482,56.87145
1939934,422.1207,306.602,64.64849,56.88313
1939953,420.9619,306.5108,64.58749,56.87533
1939970,419.8344,306.3016,64.52789,56.85743
1939987,418.7693,305.9425,64.47133,56.82665
1940004,417.8203,305.7728,64.42075,56.81209
1940022,417.2185,305.5574,64.38857,56.79359
1940038,416.8719,305.4298,64.37,56.78262
1940055,416.4927,305.2764,64.34966,56.76942
1940073,416.1325,305.1973,64.33031,56.76262
1940087,415.7508,305.0345,64.30978,56.74861
1940104,415.316,304.9634,64.28635,56.74248
1940120,414.9641,304.8744,64.26736,56.73481
1940137,414.7532,304.735,64.25596,56.72279
1940156,414.5755,304.7207,64.24635,56.72156
1940169,414.5097,304.5972,64.2428,56.7109
1940186,414.4753,304.6463,64.24094,56.71514
1940204,414.3682,304.5627,64.23514,56.70793
1940221,414.3434,304.197,64.2338,56.67633
1940237,414.3064,303.8873,64.2318,56.64954
1940253,414.1791,303.5314,64.2249,56.6187
1940271,414.0992,303.2505,64.22057,56.59433
1940288,413.8922,302.5774,64.20935,56.53578
1940305,413.8524,301.2056,64.20719,56.4159
1940324,413.7962,299.7335,64.20414,56.28643
1940338,413.5174,298.3003,64.18901,56.15952
1940354,413.0016,296.1864,64.16096,55.97079
1940371,412.7738,293.3869,64.14857,55.71799
1940389,412.5787,291.0443,64.13793,55.50391
1940408,412.3891,289.5327,64.12759,55.36451
1940420,412.1645,288.0325,64.11533,55.22519
1940435,411.8326,286.3108,64.09721,55.0641
1940453,411.4787,284.9078,64.07784,54.93186
1940469,410.8007,283.1004,64.04067,54.7602
1940487,410.023,281.3369,63.99792,54.5913
1940505,409.105,279.5717,63.94728,54.42083
1940522,408.1927,278.0831,63.89678,54.27596
1940537,407.3157,276.4582,63.84806,54.11665
1940555,406.595,274.9937,63.80789,53.972
1940570,405.6553,273.6056,63.75534,53.83397
1940588,404.8063,272.4303,63.7077,53.71639
1940604,403.8385,271.1852,63.6532,53.5911
1940619,402.5708,270.0532,63.58149,53.47654
1940635,401.2897,269.0915,63.50865,53.37873
1940652,400.1348,267.9333,63.44267,53.26034
1940670,399.1879,266.6401,63.38834,53.12736
1940687,398.3056,265.5481,63.33754,53.01443
1940703,397.4098,264.493,63.28577,52.90476
1940720,396.6335,263.4886,63.24076,52.79982
1940736,395.7907,262.3185,63.19173,52.67694
1940754,395.1658,261.1614,63.15527,52.55475
1940769,394.6438,260.1364,63.12474,52.44593
1940786,394.1193,259.1589,63.094,52.34165
1940803,393.6429,257.8408,63.06603,52.20025
1940827,393.4258,257.2135,63.05326,52.13264
1940846,393.3047,256.7057,63.04613,52.07776
1940856,393.2701,256.2929,63.0441,52.03305
1940867,393.2301,255.9278,63.04174,51.99343
1940885,393.0838,255.5931,63.03313,51.95705
1940907,392.859,255.1645,63.01988,51.91037
1940918,392.5984,254.7474,63.00451,51.86484
1940939,392.1724,254.348,62.97934,51.82117
1940954,391.4562,254.0759,62.93693,51.79137
1940969,390.3854,253.8708,62.87329,51.76888
1940987,389.0016,253.8352,62.79064,51.76497
1941003,386.7341,253.6065,62.6542,51.73987
1941019,384.1008,253.7847,62.49416,51.75943
1941039,380.7102,254.0629,62.28553,51.78994
1941052,375.5833,254.5254,61.96447,51.84058
1941074,369.7948,255.0919,61.59369,51.90245
1941089,362.5286,256.0097,61.11533,52.00232
1941102,355.6049,257.0466,60.64565,52.11462
1941119,348.3672,258.2881,60.13957,52.24834
1941135,339.4898,259.9916,59.49684,52.43051
1941153,332.2986,261.3888,58.9576,52.57882
1941169,324.4458,263.1329,58.34883,52.76254
1941186,317.6837,265.2627,57.80724,52.98481
1941203,311.8398,267.6757,57.32571,53.23391
1941219,306.5975,270.8639,56.88274,53.55865
1941236,301.1688,274.5892,56.41268,53.93187
1941253,295.9774,278.1213,55.95203,54.27969
1941269,290.8577,280.6812,55.48676,54.52814
1941287,287.1803,282.2747,55.14562,54.68129
1941303,283.8297,283.961,54.82964,54.84211
1941320,280.0434,286.9512,54.46652,55.12417
1941340,277.4201,289.2246,54.2111,55.33598
1941353,274.2822,292.5796,53.90136,55.64448
1941369,271.1632,295.8474,53.58888,55.94035
1941389,268.4622,298.4987,53.31448,56.17713
1941406,266.1238,300.1345,53.07404,56.32178
1941419,263.5832,301.6177,52.80973,56.452
1941438,260.9944,302.8875,52.53706,56.56277
1941453,258.5767,304.7142,52.2793,56.721
1941471,256.302,306.8163,52.03404,56.90144
1941487,254.1144,309.1023,51.79559,57.09572
1941503,251.7061,311.5198,51.53014,57.29898
1941521,249.4585,313.8548,51.27958,57.49319
1941537,247.3825,316.0359,51.04568,57.67275
1941553,245.0924,318.3065,50.78491,57.85782
1941571,243.1071,320.4139,50.55647,58.0279
1941587,241.2084,322.85,50.33588,58.2225
1941605,239.323,325.848,50.1148,58.4591
1941622,237.2916,328.2941,49.87431,58.64981
1941638,236.079,329.8412,49.72959,58.76937
1941654,235.5185,330.8702,49.66241,58.84843
1941673,234.7023,331.6135,49.56425,58.90533
1941688,233.5815,332.3878,49.42879,58.96439
1941705,232.515,333.2517,49.29921,59.03006
1941722,231.1255,334.0453,49.12936,59.09015
1941739,229.109,334.8812,48.88077,59.15322
1941755,226.6607,335.7666,48.57558,59.21978
1941771,223.8635,337.1617,48.22235,59.32413
1941789,220.5993,338.7793,47.80388,59.44432
1941807,217.3553,339.7443,47.38122,59.51561
1941821,214.2432,340.1685,46.96926,59.54686
1941838,211.6037,339.8894,46.61483,59.52631
1941854,209.6753,338.6747,46.35291,59.43657
1941872,207.8385,337.7344,46.10107,59.36678
1941889,205.8198,337.4855,45.82161,59.34826
1941907,204.2512,336.8934,45.60251,59.30411
1941923,202.8689,336.0303,45.408,59.23955
1941939,201.2745,335.6502,45.18198,59.21104
1941956,199.6872,335.8342,44.95516,59.22485
1941972,197.8387,336.4426,44.68873,59.27042
1941989,196.1463,336.5915,44.44264,59.28156
1942006,194.5847,336.4092,44.21372,59.26792
1942022,193.5954,335.0802,44.06776,59.16821
1942039,193.2116,333.7237,44.01095,59.06582
1942054,192.6192,332.3564,43.92303,58.962
1942072,191.5624,331.484,43.76555,58.89543
1942089,190.7035,330.7789,43.63695,58.84143
1942107,189.9584,330.1253,43.52493,58.79124
1942123,189.6179,329.2971,43.47361,58.72742
1942139,189.3715,327.9398,43.43641,58.62232
