Time Stamp(ms),Intersection,,Angle,
,x,y,x,y
1305051,315.2153,245.4483,57.60541,50.82562
1305068,315.1943,245.6984,57.60368,50.8542
1305091,315.0737,245.7536,57.59376,50.8605
1305102,315.0171,245.3825,57.5891,50.81811
1305120,314.981,245.289,57.58612,50.80741
1305133,314.7213,245.5995,57.56474,50.84291
1305151,314.3232,245.9759,57.53191,50.88586
1305168,314.1104,246.2714,57.51432,50.91953
1305183,314.0073,246.4633,57.5058,50.94137
1305201,314.2833,246.7369,57.52861,50.97247
1305217,314.4961,247.0294,57.54617,51.00566
1305232,314.7304,247.3846,57.56549,51.04593
1305251,315.0484,247.643,57.59167,51.07517
1305266,315.4682,247.8353,57.62619,51.0969
1305283,315.815,248.2168,57.65465,51.13997
1305300,316.0434,248.6881,57.67337,51.19305
1305316,316.2232,249.1464,57.68809,51.24456
1305332,316.2242,249.7052,57.68818,51.30721
1305351,315.8356,250.6186,57.65634,51.40924
1305369,315.384,251.4854,57.61927,51.50565
1305385,314.6241,252.3369,57.55672,51.59996
1305401,313.8779,253.2706,57.4951,51.70294
1305416,312.9934,254.0847,57.42178,51.79234
1305432,311.7791,255.2591,57.32065,51.92067
1305450,310.5612,256.3029,57.21865,52.03414
1305466,309.2573,257.3353,57.10882,52.14578
1305482,307.502,258.7275,56.95993,52.29547
1305500,305.7365,259.9255,56.80897,52.42347
1305516,303.9108,261.0981,56.65157,52.54804
1305532,301.8073,262.3663,56.46857,52.68198
1305550,299.82,263.5196,56.29406,52.80307
1305567,297.7378,264.527,56.10948,52.90829
1305583,295.722,265.3474,55.92909,52.99361
1305600,293.9407,265.9484,55.76826,53.0559
1305616,292.0457,266.4431,55.59571,53.10703
1305633,290.1388,267.1497,55.42052,53.17986
1305650,288.0001,267.9166,55.22218,53.25863
1305667,285.7101,268.8582,55.00759,53.35494
1305684,283.3514,269.8954,54.78413,53.46053
1305700,280.6467,271.1892,54.52482,53.59151
1305717,278.287,272.3004,54.29586,53.70335
1305733,275.7751,273.6353,54.04931,53.83694
1305750,273.4398,274.9975,53.81743,53.97238
1305768,271.2341,276.3761,53.59604,54.10857
1305785,268.9287,277.6931,53.36213,54.23783
1305803,266.8101,278.8697,53.14489,54.35263
1305816,264.7836,279.8719,52.93502,54.44992
1305832,262.8542,280.7729,52.7333,54.53699
1305850,261.0016,281.5697,52.53782,54.61368
1305867,259.0398,282.3459,52.32891,54.68811
1305885,257.1912,282.5374,52.13023,54.70643
1305903,255.3016,282.4468,51.9253,54.69777
1305918,253.7141,281.9338,51.75168,54.64863
1305932,252.0712,281.0137,51.57058,54.5602
1305951,250.4939,279.8369,51.39534,54.44653
1305969,249.2272,278.834,51.25364,54.34916
1305985,248.0772,277.6755,51.12422,54.23611
1306001,247.0424,276.4921,51.00714,54.11998
1306016,246.0698,275.0352,50.89657,53.97611
1306034,245.2316,273.9031,50.80084,53.86363
1306049,244.3442,272.5298,50.69908,53.72637
1306067,243.4389,271.1935,50.59479,53.59194
1306083,242.7132,269.9823,50.51087,53.46935
1306101,241.9301,268.7137,50.41998,53.34018
1306116,241.0263,267.3747,50.31462,53.203
1306132,240.0614,265.8971,50.20163,53.05059
1306149,239.0426,264.6244,50.08175,52.91844
1306167,237.9161,263.3774,49.94851,52.78818
1306183,236.7715,262.1029,49.81234,52.65422
1306199,235.7379,260.9665,49.68872,52.5341
1306215,234.5024,259.9964,49.54015,52.43102
1306232,233.2,259.0722,49.38252,52.33238
1306250,231.76,258.0823,49.20707,52.22623
1306273,230.7723,257.5722,49.086,52.17133
1306285,229.507,257.0819,48.93003,52.11843
1306304,228.4035,256.6704,48.7932,52.07394
1306318,227.1463,256.1149,48.63641,52.01374
1306335,225.7742,255.3754,48.46417,51.93335
1306354,224.4383,254.7396,48.29533,51.86399
1306369,222.8477,254.1647,48.09285,51.8011
1306388,221.4047,254.053,47.90777,51.78886
1306404,220.0647,254.2652,47.7347,51.8121
1306419,218.6801,254.5624,47.55465,51.84463
1306436,217.1636,254.9694,47.35602,51.88908
1306453,215.4681,255.8474,47.13217,51.98469
1306473,213.7482,256.6539,46.90315,52.07215
1306487,211.7246,257.3065,46.63115,52.14267
1306503,209.3087,258.1927,46.30282,52.23809
1306520,207.0663,259.1836,45.9945,52.3443
1306537,203.5845,262.0562,45.50887,52.6493
1306562,201.4134,264.3557,45.20174,52.89044
1306574,199.7103,266.0629,44.95848,53.06775
1306586,196.8965,269.0387,44.55199,53.37335
1306604,193.8785,271.7993,44.1096,53.65298
1306623,190.7538,275.1943,43.6445,53.99187
1306636,187.4887,279.5673,43.15067,54.4204
1306652,183.7939,284.1326,42.58205,54.85841
1306671,180.0868,290.5295,42.00095,55.45654
1306689,176.8618,296.566,41.48661,56.00482
1306704,172.7362,303.1606,40.81654,56.58651
1306722,169.2524,308.7711,40.23997,57.0677
1306736,165.8036,314.2437,39.65935,57.52534
1306752,162.6935,320.1506,39.12723,58.00673
1306769,160.1778,325.5903,38.69085,58.43889
1306787,156.9465,329.8494,38.12243,58.77
1306804,154.9312,333.1346,37.76336,59.02117
1306819,152.562,336.7132,37.33675,59.29065
1306835,150.3951,340.1484,36.94227,59.54538
1306852,149.6126,342.4483,36.79881,59.7138
1306870,148.7586,344.6525,36.64162,59.87363
1306888,148.2645,345.7952,36.55037,59.95589
1306904,148.5016,345.9312,36.59418,59.96566
1306918,148.4258,346.5984,36.58018,60.01347
1306935,148.7441,347.0005,36.63894,60.04223
1306952,148.9636,347.5442,36.6794,60.08102
1306970,149.9576,347.5093,36.86211,60.07853
1306988,150.9737,347.6224,37.048,60.08659
1307003,151.9173,347.621,37.21981,60.08649
1307020,152.7768,347.7274,37.37563,60.09407
1307036,153.7599,347.8824,37.55306,60.10511
1307056,154.2696,348.2597,37.64473,60.13194
1307071,154.5341,348.5266,37.6922,60.15088
1307088,154.8966,348.6886,37.75717,60.16238
1307104,155.233,348.8881,37.81736,60.17652
1307123,155.3383,349.093,37.83619,60.19104
1307138,155.593,349.4966,37.88166,60.21958
1307161,155.5707,349.7645,37.87769,60.2385
1307171,155.7289,349.8038,37.90591,60.24128
1307185,155.9426,349.9973,37.944,60.25493
1307204,156.194,350.0424,37.98877,60.25811
1307220,156.4548,350.1988,38.03516,60.26913
1307237,156.7379,350.3029,38.08543,60.27647
1307253,157.5198,350.2229,38.22393,60.27083
1307271,158.3392,350.0057,38.36852,60.25552
1307289,159.0424,349.8238,38.49215,60.24269
1307305,159.7414,349.6408,38.6146,60.22977
1307321,160.3599,349.523,38.72261,60.22145
1307336,161.2944,349.2622,38.8852,60.20301
1307353,162.2792,348.9276,39.05574,60.17932
1307371,163.6622,348.1878,39.29385,60.12683
1307387,166.1298,346.9026,39.71468,60.03523
1307404,168.5207,345.8044,40.1176,59.95656
1307421,171.0274,344.8104,40.53498,59.88503
1307437,174.2034,343.5567,41.05642,59.79436
1307454,179.0016,341.7816,41.8288,59.66515
1307471,183.3973,339.7203,42.5204,59.51384
1307487,189.262,336.9882,43.41986,59.31118
1307505,195.447,334.5739,44.34035,59.13006
1307521,202.2327,331.7057,45.31804,58.91237
1307539,208.9362,328.643,46.25185,58.67685
1307558,216.9419,325.2596,47.32686,58.41292
1307570,223.8376,322.2993,48.21905,58.17869
1307586,229.9924,319.3087,48.98997,57.9389
1307604,236.5357,316.0229,49.7842,57.67169
1307620,242.3705,313.5514,50.47113,57.46807
1307637,247.2507,312.1942,51.03076,57.35528
1307653,251.923,311.5587,51.55417,57.30223
1307673,256.5316,310.9556,52.05892,57.25174
1307690,260.0943,310.4158,52.44144,57.20643
1307705,263.4355,309.8893,52.79426,57.16214
1307719,266.706,309.2121,53.13416,57.105
1307736,269.7286,308.6334,53.44358,57.05603
1307753,272.2205,308.3809,53.69532,57.03463
1307770,274.9683,308.1209,53.96948,57.01256
1307791,276.9766,307.5734,54.1676,56.96601
1307806,278.5687,306.7134,54.32332,56.89265
1307820,280.2079,305.7654,54.48243,56.81145
1307837,281.7127,304.9576,54.62742,56.74198
1307854,283.4982,304.067,54.7981,56.66509
1307870,285.5186,303.2295,54.98953,56.59249
1307888,286.8983,302.4181,55.11922,56.5219
1307906,288.0252,301.7071,55.22452,56.45982
1307920,288.9533,300.7647,55.31082,56.37722
1307942,289.6062,299.7863,55.37131,56.29109
1307956,290.3142,298.8305,55.4367,56.20656
1307970,291.0486,297.7118,55.5043,56.10717
1307989,291.4692,296.3088,55.54291,55.98177
1308008,291.7771,294.8033,55.57113,55.84631
1308025,292.0441,293.117,55.59557,55.69344
1308041,291.9812,290.9638,55.58981,55.49651
1308057,292.0013,289.0762,55.59165,55.32223
1308073,291.8538,286.9203,55.57814,55.12127
1308089,290.4639,283.1969,55.4505,54.76941
1308113,289.209,280.2382,55.33453,54.48536
1308124,287.9602,277.4213,55.21846,54.21122
1308138,285.4518,273.4125,54.98324,53.8147
1308153,282.9061,269.825,54.74166,53.45338
1308171,279.7913,266.3998,54.44211,53.10257
1308190,276.5107,262.976,54.1218,52.74608
1308208,273.7044,259.895,53.84383,52.42022
1308222,270.4047,256.4424,53.51218,52.04926
1308240,267.2454,253.403,53.18971,51.71749
1308256,264.0075,250.1013,52.8541,51.35151
1308273,261.0239,246.8705,52.54018,50.98763
1308291,258.1102,244.3616,52.22922,50.70108
1308307,255.3245,242.6223,51.92781,50.50034
1308322,252.3395,240.5723,51.60025,50.26152
1308339,249.9315,238.7203,51.33253,50.04371
1308355,247.9492,237.0262,51.10977,49.84271
1308372,245.6224,234.8645,50.84552,49.58379
1308390,243.7831,232.678,50.63449,49.31906
1308407,241.7617,230.4044,50.40037,49.04074
1308424,239.9247,228.8396,50.18559,48.84737
1308440,238.2504,227.3347,49.98812,48.65998
1308455,236.9059,226.2053,49.82838,48.51841
1308473,235.6804,224.8226,49.68184,48.34401
1308489,235.1273,223.1526,49.61541,48.13179
1308505,234.6973,221.7707,49.56364,47.95484
1308521,234.4893,220.673,49.53856,47.81341
1308539,234.5719,220.0231,49.54852,47.72931
1308554,234.9265,219.2903,49.59124,47.63414
1308571,236.1619,218.7988,49.73951,47.57013
1308588,237.7954,218.5228,49.93418,47.53411
1308605,240.2863,218.7957,50.22802,47.56973
1308621,244.4012,219.2846,50.70562,47.63341
1308638,248.7085,219.9139,51.19535,47.71515
1308654,254.8121,221.311,51.87191,47.8957
1308671,260.6522,222.8843,52.50075,48.09752
1308689,267.8707,225.1546,53.25392,48.386
1308707,274.9774,228.0126,53.97039,48.74456
1308722,282.0503,230.9846,54.6598,49.11207
1308738,289.6219,234.6121,55.37277,49.55338
1308754,298.1129,239.2874,56.14286,50.11061
1308772,305.4114,243.5175,56.78104,50.60387
1308789,313.1356,248.9092,57.43359,51.21792
1308805,320.2698,253.7623,58.01631,51.75698
1308824,326.3306,257.6,58.49689,52.17433
1308840,331.9332,260.7369,58.92974,52.50974
1308853,337.8934,264.0217,59.3786,52.85558
1308870,343.0967,267.4777,59.76097,53.21358
1308888,346.7512,270.5381,60.02441,53.52569
1308904,351.1313,273.5016,60.33471,53.82359
1308924,355.3109,275.9933,60.62539,54.07084
1308941,359.4581,277.9927,60.90874,54.26712
1308954,364.001,280.4095,61.21345,54.50191
1308970,368.3556,282.7586,61.5001,54.72757
1308987,372.7234,284.6492,61.78239,54.90739
1309003,377.0193,286.0319,62.05509,55.03788
1309023,380.9957,287.3189,62.30321,55.15858
1309040,384.5353,288.3974,62.52068,55.25917
1309056,387.5806,289.3695,62.70528,55.3494
1309071,390.3816,290.3146,62.87306,55.43674
1309089,393.0904,291.1049,63.03352,55.50947
1309105,395.5213,291.9866,63.17602,55.5903
1309122,397.9655,292.9137,63.31791,55.67493
1309139,399.7254,293.8488,63.41921,55.75993
1309154,401.1743,294.7769,63.50207,55.84392
1309171,402.5901,295.5275,63.58258,55.91159
1309187,403.5315,295.8705,63.63587,55.94244
1309205,404.4192,295.9163,63.68593,55.94655
1309221,405.071,295.7968,63.72258,55.93581
1309236,405.5394,295.4232,63.74886,55.90219
1309253,405.7485,294.627,63.76057,55.83038
1309271,405.7968,293.623,63.76327,55.73944
1309288,405.5459,291.6383,63.74922,55.55841
1309304,405.7614,289.5383,63.76129,55.36503
1309321,406.0141,286.4916,63.77543,55.08108
1309338,406.3383,283.1176,63.79356,54.76184
1309355,406.846,279.292,63.82189,54.39368
1309372,407.8548,274.885,63.87803,53.96123
1309387,408.6682,270.672,63.92312,53.53925
1309405,409.1566,266.9329,63.95013,53.15754
1309422,409.146,262.3735,63.94955,52.68274
1309438,409.045,257.739,63.94397,52.18929
1309456,409.095,252.7357,63.94673,51.64401
1309471,408.8574,248.1592,63.93359,51.13347
1309488,408.1024,243.5807,63.89177,50.61116
1309507,407.5127,239.5663,63.85902,50.14346
1309521,407.0102,235.7673,63.83104,49.69226
1309541,405.8626,232.6509,63.76696,49.31577
1309557,404.6364,230.0778,63.69815,49.00051
1309571,403.2108,227.9649,63.61774,48.73862
1309590,400.8082,226.4022,63.48118,48.54314
1309607,398.2727,225.1338,63.33564,48.38337
1309623,395.2981,224.1555,63.16299,48.25945
1309638,391.0058,224.1705,62.91019,48.26136
1309657,386.6209,224.0493,62.64736,48.24597
1309672,381.3794,224.4256,62.32694,48.29372
1309691,376.4964,224.727,62.02216,48.33192
1309707,370.7488,225.693,61.65541,48.45393
1309723,365.3251,226.5099,61.30117,48.55667
1309741,360.0585,227.6828,60.94935,48.70345
1309755,354.7192,229.2722,60.58456,48.90097
1309771,348.1391,231.9576,60.12337,49.23121
1309793,342.8963,234.522,59.74641,49.54251
1309806,337.2521,237.6509,59.33086,49.91702
1309822,331.1454,241.8443,58.86952,50.40999
1309839,325.88,246.1572,58.46161,50.90653
1309855,320.0997,251.829,58.00264,51.54376
1309873,314.7705,257.1668,57.56879,52.1276
1309891,310.3092,262.56,57.19748,52.70236
1309925,302.6325,271.0158,56.54058,53.574
1309935,299.8701,273.7239,56.29847,53.84578
1309944,295.9952,277.4343,55.95363,54.21249
1309956,291.007,282.1237,55.50048,54.66684
1309971,285.9472,287.4337,55.02991,55.16932
1309990,280.892,292.3988,54.54847,55.62798
1310006,278.0336,296.3668,54.27112,55.98697
1310024,274.8257,300.1994,53.95535,56.3275
1310039,270.2781,304.9929,53.49935,56.74502
1310059,267.5172,308.0309,53.21764,57.00492
1310076,264.907,311.2024,52.94786,57.27242
1310091,262.3742,314.2551,52.68281,57.52628
1310108,259.882,317.0804,52.41884,57.75812
1310123,258.1253,319.2839,52.23085,57.9369
1310141,255.8625,321.7986,51.98634,58.13877
1310157,254.0303,323.5285,51.78637,58.27632
1310173,252.2492,324.8531,51.59027,58.38094
1310189,250.9021,325.8758,51.44082,58.46128
1310206,249.9405,326.5446,51.33353,58.51363
1310223,249.2916,326.5122,51.26086,58.51109
1310240,248.5718,326.8942,51.17996,58.54092
1310255,248.1156,327.2155,51.12856,58.56597
1310271,248.1534,327.1747,51.13282,58.56279
1310290,248.1976,327.0224,51.1378,58.55092
1310306,248.5767,326.6036,51.18052,58.51823
1310323,248.8646,326.4346,51.2129,58.50503
1310340,249.5492,326.0933,51.28974,58.47832
1310356,250.1905,325.7935,51.36148,58.45483
1310373,250.8125,325.4584,51.43085,58.42854
1310389,251.4845,324.6634,51.50556,58.36599
1310408,251.9435,323.8025,51.55645,58.29802
1310423,252.6478,322.7621,51.63431,58.21552
1310440,253.4442,321.4302,51.72203,58.10934
1310460,254.0295,320.1898,51.78629,58.00988
1310473,254.8286,318.5884,51.87372,57.88066
1310488,255.9914,316.6416,52.00033,57.72231
1310506,256.8534,314.596,52.09373,57.55441
1310522,258.3596,311.5998,52.25601,57.30567
1310540,260.012,308.1251,52.43268,57.01292
1310557,262.2071,304.2396,52.66521,56.68002
1310573,265.7411,299.6516,53.03443,56.27919
1310590,268.6409,296.231,53.33275,55.97479
1310607,272.2582,292.9489,53.69911,55.67814
1310623,276.0784,289.8417,54.07923,55.39309
1310640,280.0371,287.2739,54.46591,55.15438
1310657,284.0661,285.5129,54.8521,54.989
1310673,287.4548,283.6965,55.17128,54.81697
1310690,291.9276,281.6007,55.58491,54.61666
1310707,296.7333,279.6488,56.01979,54.4283
1310724,300.9978,278.3042,56.39769,54.29754
1310739,305.4693,277.1135,56.78602,54.18103
1310758,310.5593,275.976,57.21849,54.06913
1310773,315.9351,274.6202,57.66449,53.93495
1310792,323.1061,273.4416,58.24283,53.8176
1310811,329.1839,272.7816,58.71868,53.75161
1310827,335.894,272.4994,59.22933,53.72332
1310841,341.5626,272.2227,59.64914,53.69555
1310857,346.2171,271.9023,59.98616,53.66335
1310875,350.1416,271.7973,60.2651,53.65279
1310891,353.4333,271.6276,60.49545,53.6357
1310909,355.6241,271.4687,60.64697,53.61969
1310924,357.4037,271.2553,60.769,53.59818
1310941,358.9745,271.0644,60.87595,53.5789
1310957,360.1877,270.9399,60.95807,53.56633
1310973,360.8255,270.9268,61.00108,53.56501
1310988,361.7209,270.9341,61.06124,53.56574
1311006,362.1645,270.9809,61.09097,53.57047
1311024,362.2113,270.7054,61.0941,53.54263
1311039,362.3837,270.337,61.10564,53.50532
1311055,362.1208,270.0861,61.08805,53.47988
1311073,361.6612,270.0136,61.05724,53.47252
1311089,360.8113,269.8763,61.00012,53.45859
1311106,359.883,269.5807,60.93749,53.42855
1311123,358.8902,269.1188,60.87024,53.38152
1311141,357.4648,268.385,60.77318,53.30659
1311156,355.9381,267.4149,60.66857,53.20713
1311173,354.0078,266.5313,60.53532,53.11613
1311190,351.7034,265.6173,60.3748,53.02161
1311206,348.8464,264.1298,60.17357,52.86686
1311225,346.1726,262.3263,59.98298,52.67776
1311240,343.4643,260.2211,59.78767,52.45494
1311256,340.8139,258.3996,59.59429,52.26031
1311273,338.1098,256.3019,59.39468,52.03402
1311290,335.5044,254.3436,59.20009,51.82069
1311307,332.1483,251.9809,58.94615,51.56058
1311324,328.9427,249.9857,58.70004,51.3386
1311340,325.5392,248.3195,58.43488,51.15155
1311355,321.1068,247.0247,58.08346,51.00513
1311373,317.099,246.2815,57.75964,50.92068
1311390,312.942,245.9504,57.41751,50.88295
1311407,308.1321,245.6256,57.01352,50.84589
1311424,303.8771,244.891,56.64866,50.76183
1311441,299.7445,244.1392,56.2874,50.6755
1311459,295.4584,243.4519,55.90537,50.5963
1311473,291.1716,242.8186,55.5156,50.52308
1311493,287.083,242.2879,55.13651,50.46155
1311510,283.1326,241.6723,54.76328,50.38997
1311524,279.0921,241.055,54.37426,50.31797
1311541,275.6054,240.3395,54.03254,50.23425
1311559,271.9099,239.4452,53.66411,50.1292
1311576,267.9501,238.5073,53.26206,50.01853
1311592,264.2315,237.5728,52.87749,49.90774
1311608,260.6219,236.5377,52.49754,49.78444
1311624,257.4644,235.1776,52.15971,49.62145
1311641,254.083,234.0449,51.79214,49.48489
1311658,250.5448,233.1142,51.40102,49.3721
1311674,246.6008,232.2308,50.957,49.26457
1311692,242.9703,231.4598,50.54063,49.17033
1311710,239.889,230.8771,50.1814,49.09887
1311726,236.9134,230.376,49.82927,49.03725
1311744,234.5775,229.8271,49.54919,48.96958
1311760,232.4981,229.2931,49.29716,48.90356
1311776,230.472,228.8794,49.04906,48.85231
1311794,228.7843,228.5251,48.84051,48.80832
1311810,227.2729,227.7578,48.65224,48.7128
1311827,225.6741,226.6638,48.45156,48.57598
1311851,224.0959,224.9025,48.25189,48.35413
1311864,222.929,223.3904,48.10324,48.16212
1311878,221.4112,221.6966,47.90861,47.94531
1311894,219.1368,219.1941,47.61418,47.62164
1311909,216.3293,216.4144,47.24611,47.25734
1311926,213.4902,213.8749,46.86863,46.92008
1311943,210.1929,211.6174,46.42345,46.61668
1311960,207.2505,209.8788,46.01996,46.38066
1311977,204.8802,208.4826,45.69057,46.18964
1311994,203.695,207.564,45.52442,46.06323
1312010,202.9842,206.7768,45.42429,45.95445
1312029,202.6861,206.1065,45.38218,45.86147
1312044,202.5309,205.6735,45.36024,45.80125
1312059,202.6714,205.4712,45.3801,45.77307
1312075,203.185,205.738,45.4526,45.81023
1312092,203.5655,205.8126,45.50619,45.82061
1312109,204.2702,205.8826,45.60518,45.83035
1312126,205.1482,206.0527,45.72802,45.85399
1312146,205.8055,206.1214,45.81963,45.86354
1312162,207.0051,206.448,45.98604,45.90888
1312176,208.2524,206.8606,46.15802,45.96605
1312192,209.5268,207.3557,46.33263,46.03448
1312208,211.0665,207.9744,46.54211,46.11978
1312225,212.7495,208.5162,46.76925,46.19425
1312242,214.6707,209.1445,47.02623,46.28036
1312258,216.8638,209.9501,47.31658,46.39038
1312278,218.8533,210.616,47.57724,46.48099
1312291,220.7831,211.2129,47.82763,46.56195
1312308,222.6633,211.7133,48.06927,46.62964
1312325,224.3731,212.0353,48.28707,46.6731
1312341,225.7986,212.4153,48.46724,46.72431
1312359,227.0433,212.869,48.62352,46.78531
1312374,228.4169,213.473,48.79487,46.86632
1312391,230.089,214.1932,49.00188,46.96259
1312409,232.5488,215.1772,49.30333,47.09356
1312428,234.547,215.4313,49.54552,47.12729
1312449,236.6163,215.4672,49.79383,47.13205
1312463,238.2187,215.7777,49.98437,47.17319
1312478,239.8353,216.1922,50.17509,47.228
1312493,242.6329,216.8973,50.50156,47.32099
1312515,244.8878,217.5279,50.76147,47.40387
1312528,247.6463,218.4562,51.07553,47.52541
1312548,251.0646,219.9094,51.4589,47.71457
1312563,254.194,221.2761,51.80431,47.89121
1312578,257.2916,222.7088,52.14107,48.0751
1312594,260.9625,224.6774,52.53368,48.32564
1312611,264.2697,226.3459,52.88147,48.53607
1312628,267.3669,228.0185,53.2022,48.7453
1312646,270.4983,230.1323,53.52166,49.00723
1312660,273.29,232.4185,53.80246,49.28746
1312679,275.5559,234.6716,54.02765,49.56055
