Time Stamp(ms),Intersection,,Angle,
,x,y,x,y
1196301,324.3245,253.1905,58.33926,51.69413
1196323,324.35,253.4678,58.34127,51.72463
1196336,324.5268,253.668,58.35522,51.74662
1196351,324.6363,253.927,58.36385,51.77505
1196370,324.6795,254.0851,58.36726,51.79237
1196385,324.8282,254.2839,58.37897,51.81415
1196401,324.8256,254.5574,58.37877,51.84408
1196417,324.7323,254.8289,58.37142,51.87375
1196434,324.6054,254.9649,58.36142,51.88859
1196451,324.4981,255.0967,58.35296,51.90297
1196468,324.1727,255.4408,58.32728,51.94046
1196485,323.8904,255.7499,58.30497,51.9741
1196503,323.6324,255.8905,58.28456,51.98937
1196518,323.5554,255.873,58.27846,51.98747
1196535,323.5072,256.0041,58.27464,52.00172
1196554,323.5424,256.3244,58.27742,52.03646
1196571,323.5561,257.0347,58.27851,52.11333
1196589,323.4343,257.9032,58.26886,52.20697
1196606,323.2089,258.4995,58.25099,52.27103
1196621,322.9986,259.0971,58.2343,52.33504
1196637,322.3692,259.9983,58.18426,52.43123
1196652,321.5063,260.9745,58.11543,52.53495
1196669,320.3999,262.2026,58.02677,52.66474
1196689,318.8113,263.7578,57.8987,52.828
1196706,317.0714,265.4684,57.75739,53.00616
1196722,315.1054,267.3009,57.59637,53.19542
1196736,312.2045,269.7187,57.35614,53.44257
1196752,309.1761,272.1595,57.10196,53.6892
1196768,305.9199,274.811,56.82471,53.95388
1196787,301.8445,278.2302,56.47184,54.29032
1196804,297.95,281.602,56.12837,54.61679
1196819,293.8145,285.2269,55.75682,54.96201
1196835,288.7906,290.0837,55.29572,55.41544
1196854,283.9165,295.1264,54.83789,55.87546
1196872,278.9012,300.6285,54.3557,56.36526
1196887,273.934,306.0272,53.86671,56.83391
1196903,268.7483,311.4157,53.34372,57.29027
1196919,263.7689,316.5179,52.82915,57.7122
1196936,258.9173,321.8506,52.3158,58.14292
1196952,253.866,327.6512,51.76836,58.59989
1196969,248.7795,333.3313,51.20333,59.03609
1196987,243.8562,338.6351,50.64292,59.43364
1197004,238.9424,343.9103,50.06993,59.81999
1197021,234.4714,348.7668,49.5364,60.16793
1197036,230.0605,353.6396,48.99838,60.50978
1197053,225.9223,358.0472,48.48281,60.81291
1197070,221.9152,362.46,47.9734,61.11074
1197088,218.7075,366.5472,47.55823,61.38169
1197106,215.6957,370.0372,47.16233,61.60939
1197121,212.6027,373.387,46.74953,61.82484
1197137,209.7422,376.5944,46.36203,62.02833
1197161,207.5217,379.1995,46.0574,62.19163
1197172,205.6307,381.4469,45.79529,62.33111
1197189,203.0979,384.4799,45.44032,62.5173
1197207,200.8248,387.3474,45.11789,62.69123
1197222,199.1508,389.6925,44.87811,62.83196
1197239,197.4706,392.1359,44.63539,62.97718
1197254,195.8736,394.4352,44.40281,63.11253
1197274,194.2641,396.545,44.16649,63.23562
1197291,192.8243,398.1755,43.95349,63.33003
1197311,191.7079,399.3285,43.78728,63.39642
1197325,190.5536,400.3945,43.61444,63.45753
1197339,189.4258,401.2117,43.44462,63.5042
1197353,188.0267,401.6914,43.23259,63.53153
1197372,186.5076,402.1017,43.00071,63.55486
1197391,184.8804,402.4915,42.75036,63.577
1197404,182.9737,402.7343,42.45441,63.59076
1197422,181.1931,402.9753,42.1755,63.60441
1197438,179.2308,403.0752,41.86523,63.61007
1197454,177.797,402.9811,41.63662,63.60474
1197472,176.6454,402.6516,41.45181,63.58607
1197489,175.3724,402.2715,41.24629,63.56451
1197507,174.1259,401.5386,41.04379,63.52283
1197526,173.1047,400.8472,40.87696,63.48341
1197540,172.2583,400.2788,40.73803,63.45091
1197554,171.5083,399.3968,40.61445,63.40035
1197572,171.0729,398.4058,40.5425,63.34332
1197593,170.6333,397.3737,40.4697,63.28368
1197610,170.2066,396.5403,40.39888,63.23534
1197625,169.8055,395.6043,40.33218,63.18086
1197644,169.5711,394.88,40.29313,63.13857
1197656,169.1816,394.1866,40.22815,63.09795
1197671,168.8085,393.1334,40.16579,63.03605
1197689,168.64,391.6457,40.13759,62.94816
1197706,168.5011,389.9789,40.11433,62.84906
1197723,168.2703,388.3866,40.07562,62.75376
1197740,168.034,386.8472,40.03596,62.66104
1197755,167.7855,384.6676,39.99421,62.52875
1197772,167.6804,382.1447,39.97654,62.37415
1197788,168.0834,379.0789,40.04427,62.18411
1197805,168.1509,376.3723,40.05559,62.01432
1197822,168.0746,373.3539,40.04278,61.82272
1197838,168.0789,369.6248,40.04351,61.58266
1197856,168.2317,366.0413,40.06916,61.3484
1197871,168.8486,360.7483,40.1725,60.99588
1197888,170.2879,355.6129,40.41238,60.64619
1197907,171.6541,350.4061,40.63853,60.28373
1197923,172.6345,344.5466,40.79985,59.86599
1197940,173.7155,338.663,40.97684,59.43571
1197955,175.1231,332.2529,41.20589,58.95411
1197971,176.9898,325.6376,41.50719,58.4426
1197988,177.8856,320.2189,41.65079,58.01223
1198004,178.284,314.7721,41.71445,57.56893
1198021,179.2114,309.2443,41.86215,57.10772
1198038,180.4459,303.9581,42.0577,56.65567
1198056,181.5701,298.8819,42.23475,56.21112
1198071,181.7375,293.4885,42.26104,55.72722
1198088,182.3547,286.3757,42.35773,55.07019
1198107,183.9113,279.5601,42.60028,54.4197
1198122,185.2795,273.0639,42.81194,53.77986
1198139,186.5368,265.9873,43.00517,53.05993
1198156,188.9184,259.1586,43.36789,52.34161
1198171,191.5643,252.9602,43.76584,51.66876
1198188,194.8961,247.3099,44.25951,51.03746
1198205,197.9393,241.9208,44.70331,50.41888
1198224,201.3406,237.7336,45.19138,49.92685
1198240,203.9817,234.0546,45.5647,49.48606
1198255,206.6403,230.9938,45.93553,49.11319
1198272,210.1472,228.6846,46.41724,48.82813
1198290,213.4294,226.9138,46.86047,48.6073
1198306,217.2436,225.1371,47.36654,48.3838
1198324,221.3004,223.3314,47.89433,48.15459
1198341,225.244,221.9185,48.39729,47.97382
1198357,229.798,221.0181,48.96599,47.85796
1198373,234.9121,220.0561,49.58952,47.73359
1198391,240.3531,219.4778,50.23585,47.65854
1198406,247.511,219.3488,51.06023,47.64175
1198423,254.6374,219.2507,51.85283,47.62899
1198438,262.0325,219.2971,52.6468,47.63504
1198455,270.7913,219.3837,53.5513,47.64631
1198472,279.8032,218.7758,54.44327,47.56714
1198489,287.81,217.6709,55.20445,47.42263
1198506,296.4327,216.5877,55.99287,47.2802
1198523,305.4525,215.8778,56.78457,47.18644
1198540,313.6078,215.3876,57.47275,47.12149
1198559,320.9901,215.2063,58.07412,47.09743
1198574,329.5244,215.3173,58.74495,47.11217
1198591,336.9246,215.0479,59.30643,47.0764
1198609,343.3572,214.7199,59.7799,47.03278
1198625,349.9809,214.6751,60.25377,47.02681
1198642,355.4521,214.9948,60.63512,47.06933
1198656,360.8592,215.708,61.00334,47.16396
1198672,365.4248,217.2458,61.30775,47.36683
1198691,369.8177,218.6123,61.59517,47.5458
1198706,373.8796,219.7583,61.85627,47.69497
1198723,377.2025,221.0776,62.0666,47.86563
1198740,380.3792,222.3264,62.26501,48.02613
1198756,383.1684,223.5681,62.43707,48.18476
1198773,386.0351,224.9004,62.61189,48.35386
1198792,388.008,226.0705,62.73101,48.50146
1198807,390.0645,227.3053,62.85416,48.6563
1198824,391.9009,228.4274,62.96328,48.79618
1198842,393.2346,229.5083,63.04201,48.93019
1198858,394.6337,230.3326,63.12415,49.03191
1198875,395.8731,230.8831,63.19653,49.09961
1198891,397.2316,231.1431,63.27545,49.13152
1198909,398.5746,231.3672,63.35305,49.15899
1198925,399.8133,231.448,63.42424,49.16888
1198942,401.071,231.1263,63.49618,49.12946
1198961,402.7626,230.7193,63.59237,49.07948
1198976,404.2271,230.569,63.67511,49.061
1198992,405.8704,230.5289,63.76739,49.05606
1199009,407.9501,229.8064,63.88332,48.96702
1199027,410.1517,228.6704,64.005,48.82637
1199044,412.7102,227.4818,64.1451,48.67835
1199059,415.3811,225.3971,64.28986,48.41663
1199075,417.8058,222.8306,64.41997,48.09066
1199094,420.1486,219.9087,64.54452,47.71447
1199111,422.3609,216.1333,64.6611,47.22023
1199133,422.8742,212.2196,64.68801,46.69795
1199145,423.5192,208.0148,64.72175,46.12534
1199160,424.2155,203.6659,64.75807,45.52032
1199175,424.5784,199.2879,64.77696,44.89782
1199192,424.1498,195.3354,64.75465,44.32399
1199211,423.8506,191.3989,64.73904,43.74112
1199227,423.623,187.0086,64.72717,43.07737
1199244,423.546,183.2177,64.72314,42.49244
1199260,423.2298,179.857,64.70662,41.96458
1199276,422.6423,176.2776,64.67586,41.39257
1199295,421.9616,173.3326,64.64014,40.91427
1199310,421.34,170.3997,64.60743,40.43094
1199327,420.5104,168.5594,64.56365,40.12408
1199343,419.831,166.7873,64.5277,39.82596
1199360,419.1462,165.2142,64.49137,39.55912
1199376,418.5839,164.282,64.46146,39.40003
1199391,418.0637,163.3968,64.43374,39.24827
1199409,417.6661,163.0877,64.41251,39.19513
1199425,417.315,163.1161,64.39373,39.20001
1199443,416.9365,163.3034,64.37347,39.23222
1199458,416.7954,163.656,64.3659,39.29278
1199474,416.5468,164.2136,64.35256,39.38832
1199491,416.4362,165.5131,64.34663,39.60998
1199508,416.31,167.0732,64.33985,39.87424
1199529,416.2257,168.9038,64.33532,40.18173
1199544,416.1733,171.9716,64.3325,40.69085
1199558,416.0044,175.2426,64.32342,41.22527
1199574,415.7147,180.1104,64.30783,42.00468
1199592,415.5006,184.7757,64.2963,42.73418
1199612,415.1306,191.0596,64.27634,43.69034
1199629,415.0601,195.9934,64.27254,44.42031
1199642,415.0423,202.0453,64.27158,45.29148
1199663,414.8624,208.6837,64.26186,46.21723
1199676,414.5103,216.3357,64.24283,47.24696
1199691,413.8683,224.9388,64.20805,48.35872
1199708,412.5295,235.0733,64.13525,49.60891
1199727,411.4984,242.9578,64.07892,50.53919
1199742,410.6176,250.9709,64.03062,51.44848
1199759,410.6292,259.3282,64.03126,52.35975
1199775,410.6945,267.1065,64.03484,53.17542
1199792,411.3018,274.8549,64.06815,53.95824
1199810,412.0217,280.6552,64.10754,54.52564
1199826,413.3285,285.9027,64.17874,55.02572
1199842,415.0654,290.9835,64.27283,55.49832
1199859,416.7185,295.7234,64.36177,55.92921
1199879,417.3912,300.7415,64.39781,56.37518
1199894,417.6053,306.3037,64.40926,56.8576
1199912,417.6639,311.2221,64.41239,57.27407
1199928,417.336,316.3639,64.39485,57.6996
1199945,416.8147,321.3073,64.36694,58.09951
1199960,415.7729,325.3066,64.31097,58.41661
1199975,415.0602,329.1442,64.27254,58.71561
1199992,414.9395,333.1758,64.26603,59.0243
1200009,414.7477,337.3377,64.25567,59.33725
1200029,414.4604,341.1198,64.24013,59.61672
1200043,414.0127,345.0356,64.21588,59.90126
1200059,413.9048,348.3358,64.21003,60.13734
1200075,414.4315,351.6915,64.23856,60.37396
1200092,414.7881,355.0641,64.25785,60.60837
1200109,414.8351,358.3102,64.26038,60.83081
1200127,414.5305,360.9523,64.24392,61.00961
1200143,414.3226,363.537,64.23267,61.18259
1200159,413.9011,365.7957,64.20983,61.33223
1200175,412.9477,367.7285,64.15803,61.45914
1200192,411.6754,369.4277,64.08861,61.56986
1200210,410.2605,371.1434,64.01099,61.68087
1200227,408.673,372.277,63.92339,61.75378
1200242,406.8008,372.7857,63.81937,61.78638
1200259,405.3877,373.163,63.74035,61.81053
1200276,403.6966,373.4681,63.64519,61.83002
1200294,401.5141,373.5723,63.52144,61.83667
1200310,398.4136,373.9854,63.34377,61.86301
1200334,396.9211,374.1406,63.25745,61.87289
1200343,394.4436,374.2379,63.11302,61.87909
1200362,392.3531,374.3843,62.99002,61.8884
1200375,390.1257,374.6594,62.85781,61.90589
1200392,387.6222,375.2368,62.70779,61.94253
1200410,385.6176,375.751,62.58655,61.97509
1200427,383.5338,376.2507,62.45947,62.00665
1200443,381.7449,376.6503,62.34951,62.03186
1200460,379.8072,376.8829,62.22947,62.0465
1200477,377.7674,377.1477,62.10208,62.06316
1200493,375.3872,377.2978,61.95206,62.0726
1200509,372.5166,377.542,61.76914,62.08794
1200527,369.4732,377.8048,61.57281,62.10442
1200544,365.6348,378.0338,61.32161,62.11878
1200561,361.6848,378.3262,61.05883,62.13708
1200581,357.1129,378.7173,60.74912,62.16154
1200593,351.8591,379.2631,60.3857,62.19559
1200610,345.8968,380.0356,59.96319,62.24367
1200627,340.643,380.4922,59.58174,62.27201
1200644,335.5963,381.0017,59.207,62.30358
1200661,330.8188,381.6743,58.8445,62.34515
1200676,326.0556,382.2949,58.47536,62.3834
1200693,321.3843,382.782,58.10567,62.41335
1200711,317.5205,383.0508,57.79397,62.42986
1200728,313.3036,383.5837,57.44753,62.46253
1200744,309.425,384.3447,57.12299,62.50906
1200762,306.4494,385.0234,56.87008,62.55043
1200780,304.4059,385.6142,56.69439,62.58635
1200795,301.9513,386.2081,56.48116,62.62237
1200812,299.8391,386.9234,56.29575,62.66564
1200827,297.8291,387.7043,56.11761,62.71273
1200846,295.9993,388.1462,55.954,62.73932
1200863,294.8614,388.3469,55.85155,62.75137
1200879,293.6815,388.6769,55.74475,62.77118
1200895,292.5912,389.2277,55.64553,62.80418
1200913,291.6133,389.7961,55.55612,62.83815
1200929,290.7846,390.3421,55.48003,62.87071
1200946,290.1475,390.5908,55.42133,62.88552
1200963,289.8094,390.6197,55.3901,62.88724
1200980,289.8224,390.5924,55.3913,62.88561
1200996,290.2191,390.4509,55.42793,62.87719
1201011,290.5893,390.3828,55.46205,62.87314
1201028,291.2017,390.3802,55.51836,62.87298
1201046,291.6314,390.3336,55.55778,62.8702
1201063,292.3159,390.1684,55.6204,62.86036
1201080,293.0232,389.9349,55.68491,62.84644
1201095,293.688,389.6758,55.74534,62.83097
1201113,294.1418,389.4354,55.78648,62.8166
1201129,294.2621,389.2267,55.79738,62.80412
1201146,294.2577,389.1217,55.79698,62.79783
1201164,293.8316,389.2137,55.75837,62.80334
1201182,293.4957,389.2424,55.72787,62.80506
1201196,293.1451,389.2172,55.696,62.80355
1201212,292.455,388.959,55.63311,62.78809
1201229,291.7919,388.78,55.57248,62.77736
1201246,291.0424,388.5735,55.50373,62.76498
1201263,289.7453,388.8223,55.38417,62.7799
1201279,288.7783,388.8859,55.29457,62.78371
1201295,287.9242,388.6853,55.2151,62.77168
1201312,287.121,388.3354,55.14007,62.75068
1201328,286.2557,387.9663,55.05892,62.7285
1201346,285.4843,387.6674,54.9863,62.71051
1201363,284.7332,387.3723,54.91534,62.69273
1201378,283.9283,387.2202,54.83901,62.68356
1201395,282.9289,387.1186,54.74384,62.67743
1201413,282.0087,386.8403,54.65581,62.66062
1201430,281.1053,386.4124,54.56902,62.63474
1201447,280.4541,385.8201,54.50623,62.59885
1201467,279.7554,385.4099,54.43863,62.57394
1201483,278.9184,385.1392,54.35737,62.55747
1201500,278.1194,384.9508,54.2795,62.54601
1201512,277.1991,384.6699,54.18943,62.52889
1201529,275.8366,384.2747,54.05538,62.50478
1201547,274.6233,383.8843,53.93526,62.48093
1201564,273.17,383.6519,53.79047,62.4667
1201580,271.75,383.5011,53.64802,62.45747
1201596,270.0739,383.4781,53.47865,62.45606
1201613,268.4755,383.4822,53.31585,62.45631
1201632,267.0294,383.5099,53.16748,62.45801
1201646,265.5295,383.2884,53.0125,62.44444
1201664,264.2075,383.0849,52.87498,62.43195
1201680,263.002,382.9122,52.74881,62.42135
1201696,261.8233,382.9128,52.62473,62.42139
1201714,260.6199,383.0275,52.49733,62.42843
1201734,259.9284,383.0882,52.42379,62.43216
1201750,259.4015,382.9951,52.36758,62.42644
1201768,259.3803,382.7007,52.36531,62.40836
1201780,260.1116,382.1398,52.44329,62.37385
1201800,260.963,381.7831,52.53373,62.35186
1201817,262.6495,381.3016,52.71178,62.32213
1201831,265.0515,380.5004,52.96288,62.27252
1201846,269.0034,379.4977,53.36975,62.21021
1201864,274.4922,378.3231,53.92223,62.13689
1201881,279.8958,377.4006,54.45224,62.07906
1201897,286.0209,376.456,55.03684,62.0196
1201914,293.5569,375.4102,55.73344,61.95352
1201930,300.2295,374.685,56.33015,61.90752
1201947,306.4253,374.1685,56.86801,61.87467
1201965,312.8154,373.6214,57.40699,61.8398
1201981,318.9048,372.9383,57.90627,61.79615
1201997,324.7846,372.2803,58.37554,61.75399
1202014,331.1498,371.4289,58.86986,61.69926
1202031,336.8496,370.7025,59.30084,61.65242
1202047,343.4321,370.1591,59.78533,61.61728
1202066,349.2471,369.9013,60.20194,61.60059
1202081,355.3524,369.9118,60.62825,61.60126
1202098,361.3414,369.9909,61.03577,61.60639
1202118,366.0498,370.3182,61.34897,61.62758
1202131,371.1213,370.8066,61.67945,61.65915
1202151,374.5958,371.2101,61.90185,61.68517
1202166,378.1909,371.7772,62.12862,61.72168
1202183,380.8924,372.5403,62.29681,61.77066
1202200,383.3738,373.21,62.44967,61.81353
1202217,385.8016,373.7012,62.59772,61.84489
1202233,387.5247,374.1306,62.70192,61.87226
1202249,389.5651,374.5002,62.82435,61.89577
1202267,390.9869,374.7693,62.90907,61.91287
1202283,392.2502,375.1575,62.98394,61.9375
1202301,392.9796,375.4919,63.02699,61.95869
1202329,393.7875,375.8201,63.07453,61.97945
1202346,393.9745,375.8785,63.08551,61.98315
1202359,394.3856,375.9355,63.10962,61.98674
1202369,394.7499,375.9688,63.13095,61.98885
1202385,395.2088,376.1303,63.15778,61.99905
1202404,395.8643,376.1069,63.19602,61.99758
1202420,396.6109,376.1063,63.23944,61.99754
1202435,397.2733,376.0077,63.27786,61.99131
1202451,397.8557,375.8457,63.31156,61.98107
1202468,398.2213,375.8661,63.33267,61.98236
1202487,398.2226,375.7103,63.33275,61.97251
1202504,398.4063,375.6962,63.34335,61.97162
1202519,398.5175,375.6864,63.34976,61.971
1202534,398.6749,375.8339,63.35883,61.98033
1202553,398.856,375.9457,63.36926,61.98739
1202570,398.8279,376.0769,63.36763,61.99568
1202586,398.8542,376.0545,63.36915,61.99427
1202603,398.7627,376.0145,63.36388,61.99174
1202618,398.5766,376.0515,63.35316,61.99408
1202636,398.2866,376.1369,63.33644,61.99947
1202653,397.9533,376.3299,63.3172,62.01165
1202670,397.7729,376.2159,63.30677,62.00446
1202686,397.583,376.159,63.29579,62.00086
1202701,397.4008,376.0016,63.28525,61.99092
1202718,397.1682,375.8255,63.27178,61.97979
1202733,396.8288,375.5761,63.25209,61.96402
1202754,396.4149,375.3874,63.22806,61.95207
1202768,395.8729,375.2725,63.19652,61.94479
1202785,395.0087,375.1492,63.14608,61.93697
1202802,393.9916,374.9787,63.08651,61.92616
1202820,392.7805,374.638,63.01525,61.90453
1202834,390.7888,374.3245,62.8973,61.8846
1202850,388.3701,374.1632,62.75277,61.87433
1202873,385.4341,374.0762,62.57541,61.86879
1202885,380.7148,374.3025,62.28581,61.8832
1202901,375.4095,374.5107,61.95347,61.89644
1202920,369.3377,374.8544,61.56402,61.91827
1202936,361.7132,375.3994,61.06073,61.95283
1202955,355.3561,375.7331,60.62851,61.97395
1202970,348.5069,376.0054,60.14949,61.99117
1202985,342.3305,376.4413,59.70522,62.01868
1203003,336.0617,377.2605,59.24191,62.07026
1203018,329.4242,378.4099,58.73723,62.14232
1203034,322.655,379.3905,58.207,62.20353
1203053,316.6835,380.0243,57.72573,62.24297
1203070,311.168,380.5963,57.26954,62.27847
1203085,305.8056,381.1271,56.8149,62.31134
1203105,301.1106,381.744,56.40757,62.34945
1203119,295.9176,382.4665,55.94666,62.39396
1203136,290.916,383.163,55.49212,62.43674
1203151,286.2547,383.86,55.05883,62.47943
1203168,281.9464,384.4171,54.64984,62.51347
1203184,277.2493,384.8279,54.19436,62.53852
1203204,273.0502,385.4257,53.77849,62.57489
1203221,268.6641,386.0768,53.33512,62.61442
1203236,264.7317,386.7168,52.92962,62.65316
1203252,261.1029,387.2917,52.54855,62.68787
1203270,257.6583,387.7306,52.1806,62.71432
1203288,254.2474,388.1684,51.81015,62.74065
1203303,251.4725,388.5019,51.50422,62.76068
1203328,248.6538,389.1308,51.18919,62.79838
1203336,246.5036,389.5068,50.94595,62.82087
1203353,244.2295,389.8159,50.68589,62.83934
1203370,242.264,390.0301,50.45877,62.85211
1203388,240.7263,390.1295,50.27956,62.85804
1203404,239.236,390.2117,50.10456,62.86294
1203422,238.1011,390.1747,49.97043,62.86073
1203436,236.998,389.887,49.83936,62.84358
1203452,236.0565,389.173,49.7269,62.8009
1203469,235.1734,388.6387,49.62096,62.76889
1203486,234.3748,388.1396,49.52474,62.73892
1203503,233.5904,387.7239,49.42988,62.71391
1203519,232.9182,387.1953,49.34829,62.68206
1203536,232.1764,386.6536,49.25793,62.64933
1203552,231.3765,386.2454,49.16013,62.62463
1203570,230.7491,386.0772,49.08315,62.61444
1203585,230.2607,385.8198,49.02304,62.59883
1203602,229.9974,385.3338,48.99059,62.56931
1203618,229.9991,384.6209,48.9908,62.52591
1203634,230.0752,383.8979,49.00019,62.48175
1203652,230.0493,383.236,48.997,62.44122
1203669,230.212,382.6604,49.01706,62.40588
1203687,230.4368,382.1344,49.04473,62.37352
1203705,230.9189,381.5106,49.104,62.33504
1203722,231.3306,380.8616,49.15451,62.29491
1203737,231.7577,380.1776,49.20679,62.25249
1203754,232.4498,379.373,49.29127,62.20245
1203772,232.9839,378.7444,49.35627,62.16323
1203789,233.6498,378.0423,49.43707,62.11931
1203805,234.7157,376.9936,49.56586,62.05347
1203822,235.7618,376.0753,49.69159,61.99558
1203838,237.0087,375.1067,49.84062,61.93428
1203854,238.8918,373.9204,50.06396,61.85887
1203872,241.3244,372.4641,50.34942,61.76578
1203887,243.7238,371.1499,50.62766,61.68129
1203905,246.5047,369.6017,50.94608,61.58116
1203922,250.0437,367.5114,51.34507,61.44493
