Time Stamp(ms),Intersection,,Angle,
,x,y,x,y
1280958,317.0475,247.5264,57.75544,51.06198
1280971,316.8772,247.4834,57.74155,51.05711
1280987,316.8182,247.4694,57.73673,51.05553
1281004,316.7827,247.5558,57.73384,51.0653
1281024,316.7558,247.5747,57.73163,51.06744
1281038,316.7145,247.665,57.72827,51.07765
1281055,316.5965,247.6974,57.71862,51.08132
1281072,316.3941,247.7503,57.70208,51.08729
1281090,316.2666,247.6654,57.69165,51.0777
1281105,316.1753,247.623,57.68417,51.0729
1281122,315.9453,247.6528,57.66534,51.07628
1281139,315.7247,247.6804,57.64724,51.07939
1281154,315.4069,247.7157,57.62115,51.08339
1281172,315.1669,247.5685,57.60143,51.06674
1281188,314.8923,247.4263,57.57882,51.05065
1281205,314.7523,247.0504,57.5673,51.00806
1281224,314.7046,246.8062,57.56337,50.98034
1281240,314.7323,246.6659,57.56565,50.9644
1281257,314.7411,246.5329,57.56637,50.94928
1281272,314.7041,246.4716,57.56332,50.94231
1281290,314.548,246.3644,57.55045,50.93011
1281307,314.3738,246.1463,57.53608,50.90529
1281323,314.2756,245.8487,57.52797,50.87135
1281340,314.0902,245.6299,57.51266,50.84638
1281356,313.7166,245.6311,57.48175,50.84652
1281374,313.1,245.839,57.43064,50.87024
1281390,312.4731,245.9765,57.37852,50.88593
1281408,311.7501,246.0793,57.31822,50.89765
1281426,310.9346,246.229,57.24998,50.9147
1281440,310.0748,246.4402,57.17775,50.93874
1281456,309.0039,246.7392,57.0874,50.97273
1281474,307.7767,246.9814,56.98331,51.00023
1281491,306.5036,246.902,56.87471,50.99121
1281509,305.1296,246.6045,56.75679,50.95742
1281525,303.7539,246.3777,56.63799,50.93163
1281542,302.2772,246.39,56.50961,50.93303
1281558,300.5367,246.7599,56.35718,50.97508
1281576,298.7153,247.2119,56.19635,51.02636
1281593,296.5657,247.6986,56.00479,51.08145
1281611,294.5282,248.1057,55.82145,51.12744
1281627,292.1351,248.7275,55.60388,51.19749
1281645,289.8156,249.4536,55.39068,51.27902
1281661,287.4172,250.4228,55.16778,51.38741
1281677,284.6145,251.7312,54.9041,51.53292
1281692,281.6087,253.2679,54.61742,51.70263
1281710,278.4282,255.0731,54.30963,51.9004
1281726,275.0083,257.0728,53.97345,52.11745
1281744,271.5679,259.0388,53.62969,52.32881
1281759,267.8947,261.2201,53.25638,52.56096
1281775,263.9166,263.5791,52.8446,52.8093
1281792,260.1734,265.8646,52.44986,53.04723
1281810,256.3195,268.3504,52.03593,53.30305
1281829,252.8141,270.5983,51.65265,53.53178
1281844,249.0756,273.0251,51.23662,53.77598
1281860,245.5657,275.2447,50.83905,53.99686
1281875,241.4151,278.0388,50.36,54.27162
1281894,237.4601,280.4917,49.89436,54.50985
1281909,233.2428,283.0614,49.38771,54.75648
1281927,228.905,285.6078,48.85548,54.99794
1281944,224.4507,288.0015,48.2969,55.22231
1281960,219.8409,290.4036,47.70568,55.44495
1281976,215.4036,292.6277,47.12361,55.64886
1281992,211.0277,294.6623,46.53685,55.83357
1282009,206.3539,296.8901,45.89583,56.03383
1282027,202.4984,298.4577,45.35564,56.1735
1282045,198.8669,300.1802,44.83723,56.32581
1282061,195.4827,301.7605,44.34557,56.46449
1282077,192.2643,303.2557,43.87024,56.59477
1282093,189.3241,304.6134,43.42925,56.7123
1282111,186.2183,305.9945,42.95634,56.83111
1282129,183.2301,307.2842,42.49437,56.94138
1282147,180.7676,308.3353,42.10847,57.03077
1282161,178.5352,309.2523,41.75452,57.10839
1282177,176.1507,310.2993,41.37209,57.19664
1282194,173.7939,311.3251,40.98965,57.2827
1282213,172.405,312.0077,40.76216,57.33973
1282227,170.8821,312.8737,40.51093,57.41184
1282246,170.0586,313.4072,40.37428,57.45612
1282263,169.0249,314.0272,40.20197,57.50745
1282279,168.3702,314.3633,40.09239,57.53522
1282293,168.05,314.5186,40.03866,57.54802
1282310,167.7684,314.8016,39.99133,57.57136
1282327,167.8341,315.0706,40.00238,57.59351
1282345,167.9124,315.3817,40.01554,57.61908
1282362,168.0872,315.7985,40.04491,57.65329
1282379,168.5379,316.1743,40.12049,57.68409
1282395,169.023,316.4295,40.20166,57.70497
1282412,169.7158,316.5222,40.31723,57.71255
1282429,170.886,316.3561,40.51156,57.69897
1282446,172.1358,316.2697,40.71789,57.69189
1282462,173.8544,316.1099,40.99952,57.67881
1282480,175.422,316.018,41.25432,57.67129
1282494,177.2497,315.8765,41.54892,57.65969
1282511,180.1042,315.543,42.0037,57.63233
1282528,183.5146,315.1063,42.53865,57.59644
1282546,188.6618,314.542,43.32902,57.54995
1282562,194.3656,313.7666,44.18146,57.48589
1282577,200.931,313.0411,45.13304,57.42575
1282592,211.0314,311.9342,46.53736,57.3336
1282610,221.1792,310.7527,47.87872,57.23473
1282627,231.9617,309.714,49.23172,57.14736
1282646,243.6519,309.0469,50.61937,57.09103
1282660,255.1166,308.7407,51.90515,57.06512
1282681,263.2263,308.8024,52.77234,57.07035
1282694,270.7064,308.8609,53.54272,57.0753
1282710,278.3156,308.8718,54.29865,57.07623
1282727,283.7797,309.114,54.82489,57.09671
1282746,288.8743,309.382,55.30349,57.11935
1282761,292.8949,309.9093,55.67322,57.16382
1282778,296.9762,310.2412,56.04152,57.19176
1282793,300.8849,310.7498,56.38778,57.23448
1282813,303.4628,311.5871,56.61275,57.3046
1282829,305.9634,312.4441,56.82844,57.3761
1282846,307.7743,313.231,56.98311,57.44151
1282862,309.1694,313.6898,57.10139,57.47953
1282879,310.5546,313.9038,57.21809,57.49725
1282895,311.7037,314.0934,57.31435,57.51292
1282912,312.0459,314.2678,57.34292,57.52733
1282927,312.2773,314.5033,57.36221,57.54677
1282945,312.7221,314.7045,57.39924,57.56335
1282961,313.1843,314.8927,57.43763,57.57886
1282978,313.5093,315.2422,57.46458,57.60762
1282993,313.5205,315.7141,57.46551,57.64637
1283012,313.5303,316.0744,57.46632,57.67591
1283028,313.4133,316.2788,57.45663,57.69265
1283046,313.3577,316.4853,57.45202,57.70953
1283062,313.1006,316.7348,57.43069,57.72992
1283080,312.4883,317.0702,57.37978,57.75729
1283098,311.9511,317.2641,57.33501,57.77309
1283116,311.5181,317.1535,57.29884,57.76408
1283134,311.5114,316.989,57.29827,57.75067
1283147,311.5008,316.8836,57.29739,57.74207
1283164,311.4993,316.8144,57.29726,57.73642
1283181,311.4536,316.7043,57.29344,57.72743
1283198,311.435,316.5996,57.29189,57.71888
1283214,311.3177,316.5522,57.28207,57.715
1283231,311.0599,316.4571,57.26049,57.70723
1283248,310.7216,316.3319,57.23212,57.69699
1283267,310.4009,316.2111,57.20518,57.6871
1283281,310.0349,316.1143,57.1744,57.67918
1283298,309.6249,316.0694,57.13985,57.6755
1283316,309.3432,315.9633,57.11607,57.66681
1283332,308.9929,315.9263,57.08646,57.66377
1283350,308.6949,315.7234,57.06124,57.64714
1283364,308.4026,315.4561,57.03648,57.62519
1283380,308.2052,315.0305,57.01973,57.59021
1283396,307.9824,314.7499,57.0008,57.5671
1283413,307.6971,314.439,56.97654,57.54146
1283435,307.3762,314.1894,56.94922,57.52085
1283451,307.0864,313.9607,56.9245,57.50195
1283465,306.7568,313.6946,56.89637,57.47993
1283481,306.4778,313.438,56.8725,57.45868
1283497,306.237,313.1407,56.85189,57.43402
1283513,305.987,312.7305,56.83047,57.39993
1283530,305.7077,312.4699,56.8065,57.37825
1283550,305.5574,312.2428,56.79359,57.35934
1283564,305.5085,312.0137,56.78939,57.34023
1283580,305.4301,311.8089,56.78265,57.32314
1283596,305.3532,311.6354,56.77604,57.30864
1283613,305.2858,311.4245,56.77024,57.291
1283631,305.2809,311.1927,56.76981,57.27161
1283648,305.2927,310.8184,56.77083,57.24023
1283664,305.2879,310.4374,56.77042,57.20825
1283680,305.2574,309.9932,56.76779,57.17089
1283696,305.2038,309.326,56.76318,57.11463
1283713,305.1337,308.6261,56.75715,57.05542
1283730,304.9043,307.4971,56.73739,56.95951
1283747,304.6958,306.3244,56.71941,56.85938
1283763,304.3976,304.828,56.69367,56.73081
1283781,304.012,302.7451,56.66033,56.55038
1283796,303.5952,300.2669,56.62423,56.33345
1283813,303.2269,297.3554,56.59227,56.07539
1283829,302.8463,293.0504,56.55919,55.68739
1283851,302.5418,289.0004,56.53268,55.31519
1283863,302.2716,284.7652,56.50912,54.91836
1283878,302.1853,279.5104,56.50159,54.41489
1283899,302.134,274.2086,56.49711,53.89405
1283913,302.4406,268.7808,56.52386,53.34704
1283929,303.7348,260.301,56.63633,52.46344
1283956,304.55,255.1075,56.70683,51.90415
1283965,305.2875,249.6056,56.77039,51.29605
1283979,306.0828,244.3973,56.83868,50.70517
1283995,307.0482,238.858,56.92125,50.05997
1284014,307.9059,233.4133,56.9943,49.40841
1284033,308.7649,229.0773,57.06717,48.87684
1284049,309.7041,225.1255,57.14653,48.38232
1284065,310.5124,221.3831,57.21455,47.90498
1284081,311.1563,218.3576,57.26856,47.51254
1284097,311.549,215.8711,57.30142,47.18555
1284118,311.6365,213.8757,57.30873,46.92019
1284134,311.642,212.1635,57.30919,46.69038
1284151,311.5691,210.4827,57.3031,46.46287
1284167,311.1941,209.2877,57.27172,46.29995
1284182,310.8994,207.9699,57.24703,46.11916
1284198,310.5264,206.9576,57.21572,45.97947
1284213,309.8249,205.9524,57.15671,45.84006
1284230,309.3117,205.0359,57.11341,45.71233
1284247,308.7654,204.3752,57.06721,45.61989
1284263,307.9258,203.9594,56.99599,45.56157
1284284,307.353,203.6225,56.94724,45.51421
1284297,306.7281,203.0834,56.89391,45.43827
1284313,306.1557,202.2311,56.84492,45.31781
1284331,305.4752,201.6224,56.78653,45.23146
1284351,304.6295,201.2785,56.71369,45.18255
1284364,303.7852,200.9371,56.64069,45.13391
1284384,302.5937,200.6493,56.53719,45.09285
1284406,301.3331,200.5638,56.42708,45.08064
1284416,298.9176,200.6828,56.21428,45.09764
1284441,297.6528,200.8172,56.10191,45.11682
1284451,295.9622,200.9867,55.95067,45.14098
1284465,292.3719,201.5806,55.62552,45.22552
1284482,287.9826,202.3928,55.22055,45.34069
1284499,283.0353,203.1521,54.75399,45.44797
1284516,276.8648,204.0366,54.15662,45.57241
1284532,268.3911,205.3578,53.30722,45.75726
1284549,260.26,206.763,52.45908,45.95254
1284566,251.7445,208.4146,51.53439,46.18031
1284583,243.3415,210.3823,50.58355,46.44922
1284600,235.8217,212.3986,49.69878,46.72206
1284616,228.822,214.7291,48.84518,47.034
1284633,221.7431,216.9947,47.95129,47.33381
1284651,215.3511,219.2558,47.11665,47.62967
1284667,209.5606,221.3406,46.33725,47.89952
1284685,204.8143,223.2265,45.68137,48.14122
1284700,199.9217,225.3944,44.98878,48.41628
1284718,194.4855,227.687,44.19912,48.70397
1284738,191.0445,229.4544,43.68808,48.92353
1284754,187.8617,230.9758,43.20748,49.11098
1284767,184.6377,232.5544,42.71284,49.30402
1284786,181.9596,233.9689,42.29587,49.4757
1284801,179.5639,235.1421,41.91811,49.61719
1284819,177.6585,235.8962,41.61444,49.70771
1284836,175.7284,236.8458,41.3039,49.82121
1284854,174.1321,237.8487,41.0448,49.94051
1284872,172.9386,238.746,40.84975,50.04675
1284887,171.4614,240.0016,40.60671,50.19462
1284901,170.1917,241.4025,40.3964,50.35854
1284919,169.1544,243.0947,40.22361,50.55502
1284935,167.9349,244.9327,40.01933,50.76662
1284957,167.0451,247.2085,39.86949,51.02597
1284976,166.254,248.9672,39.73574,51.22443
1284994,165.3747,250.8482,39.58644,51.43482
1285009,164.6054,252.7219,39.45531,51.64248
1285021,163.7983,254.7995,39.31718,51.87054
1285036,162.8588,257.1349,39.15572,52.12416
1285051,161.6178,260.1001,38.9413,52.44206
1285069,160.5111,262.821,38.74898,52.7298
1285085,159.1624,265.9316,38.51319,53.05416
1285101,157.618,269.5513,38.24128,53.42555
1285117,156.3055,272.9145,38.00859,53.76491
1285134,154.9542,276.2234,37.76749,54.09352
1285151,153.6586,278.9915,37.53482,54.36448
1285170,152.4963,281.3419,37.32485,54.59179
1285187,151.7619,283.2844,37.19158,54.77774
1285201,151.4284,285.5076,37.13089,54.98849
1285230,151.9413,289.0934,37.22418,55.32383
1285246,152.2401,290.541,37.27842,55.4576
1285255,152.5199,292.1875,37.32913,55.60867
1285268,152.9942,294.4634,37.41494,55.81559
1285286,153.303,296.261,37.4707,55.97749
1285301,153.4614,298.2359,37.49929,56.1538
1285316,153.8602,300.6053,37.57111,56.36321
1285336,154.1551,302.6731,37.62416,56.54412
1285354,154.2418,303.9561,37.63974,56.65549
1285368,154.5971,305.2648,37.7035,56.76843
1285386,154.7605,306.3862,37.7328,56.86466
1285402,154.9503,307.544,37.76679,56.96351
1285418,155.2082,308.7504,37.81292,57.06594
1285434,155.4831,309.8091,37.86205,57.15538
1285454,155.6391,310.7295,37.8899,57.23278
1285471,155.9158,311.6084,37.93922,57.30638
1285487,156.2038,312.4995,37.99051,57.38071
1285503,156.6689,313.4584,38.07317,57.46037
1285522,157.1951,314.6001,38.16647,57.55474
1285538,157.6516,315.5757,38.24722,57.63501
1285555,158.2228,316.473,38.34802,57.70853
1285570,158.9315,317.2328,38.47267,57.77054
1285586,159.7884,317.9847,38.62283,57.8317
1285604,160.8047,318.5555,38.80009,57.878
1285622,162.3099,318.9621,39.06104,57.9109
1285639,163.8698,319.2672,39.32943,57.93555
1285654,166.3301,319.557,39.74862,57.95893
1285670,169.3365,319.4457,40.25401,57.94996
1285689,173.0247,318.9874,40.86385,57.91294
1285703,177.9682,318.2906,41.664,57.85653
1285719,185.0052,317.338,42.76963,57.77911
1285738,191.297,316.7224,43.72587,57.7289
1285753,199.4707,316.0615,44.92408,57.67485
1285771,206.1403,315.5672,45.86617,57.63432
1285787,214.5707,314.7032,47.01292,57.56325
1285804,222.9843,313.685,48.1103,57.47914
1285820,231.1786,312.5697,49.13587,57.38656
1285836,240.8056,310.9708,50.28883,57.25302
1285853,250.5835,309.5084,51.40533,57.13002
1285871,259.7699,308.0824,52.40689,57.00929
1285888,269.6159,306.2514,53.43213,56.85312
1285905,278.4488,304.5276,54.31164,56.7049
1285920,287.7732,302.5521,55.20102,56.53357
1285941,295.2313,301.161,55.88491,56.41199
1285956,302.2769,299.7307,56.50958,56.28617
1285971,308.9217,298.3715,57.08044,56.16584
1285988,314.4036,297.5905,57.53854,56.09636
1286006,320.6723,296.8773,58.04863,56.03268
1286033,326.9347,296.1941,58.54409,55.97148
1286046,330.6008,295.7221,58.82777,55.92909
1286056,334.3159,295.3945,59.1106,55.89962
1286070,338.9953,295.1299,59.4603,55.87577
1286089,342.4827,295.1121,59.7163,55.87417
1286104,345.9479,294.9424,59.96686,55.85886
1286124,349.3348,294.691,60.20814,55.83617
1286138,352.6024,294.507,60.43761,55.81953
1286155,356.1888,294.1839,60.68579,55.7903
1286173,359.7227,293.8956,60.92665,55.76417
1286191,362.813,293.8511,61.13433,55.76014
1286207,365.4467,293.6411,61.3092,55.74109
1286224,368.0343,293.3853,61.47912,55.71785
1286242,370.3241,293.0072,61.62796,55.68345
1286256,372.4378,292.6741,61.7641,55.6531
1286272,374.894,292.2492,61.92078,55.61431
1286294,376.4689,291.883,62.02042,55.58082
1286308,377.9625,291.2983,62.11431,55.52723
1286323,379.6717,290.2244,62.22104,55.42842
1286341,381.2401,289.0891,62.31833,55.32342
1286358,382.492,288.3472,62.39553,55.2545
1286372,383.8774,287.384,62.4805,55.16467
1286389,385.316,286.222,62.56823,55.05576
1286407,387.0547,284.9745,62.67356,54.93817
1286425,388.6949,283.8344,62.77226,54.83009
1286440,390.4223,282.6542,62.87548,54.7176
1286455,392.421,281.4206,62.99403,54.59935
1286476,393.9219,280.3852,63.08242,54.49957
1286490,395.5029,278.9785,63.17495,54.36322
1286509,396.9362,277.6952,63.25832,54.23803
1286526,398.1378,276.5289,63.32785,54.1236
1286539,399.153,275.163,63.38634,53.98877
1286559,400.1525,273.6889,63.44368,53.84228
1286578,401.0798,272.0756,63.49669,53.68077
1286590,401.8898,270.7461,63.54282,53.54674
1286607,402.4886,269.4644,63.57683,53.41671
1286624,403.0279,268.0023,63.60739,53.26741
1286640,403.4367,266.4515,63.63051,53.1079
1286656,403.8255,264.9436,63.65247,52.95166
1286674,403.9763,263.6479,63.66098,52.8165
1286690,404.1004,262.4066,63.66797,52.68623
1286706,403.9665,261.2839,63.66042,52.56771
1286725,403.8518,260.2147,63.65395,52.45426
1286742,403.5947,259.342,63.63944,52.36122
1286757,403.2148,258.5789,63.61797,52.27954
1286772,402.7607,257.834,63.59225,52.19952
1286792,402.233,257.2176,63.56232,52.13308
1286807,401.5534,256.5695,63.52367,52.06301
1286825,400.8062,255.7836,63.48106,51.97776
1286841,399.9446,255.1069,63.43178,51.90409
1286858,398.8243,254.6614,63.36743,51.85545
1286874,397.1285,254.079,63.26947,51.79171
1286890,395.4891,253.4047,63.17414,51.71769
1286906,393.7619,252.6281,63.07302,51.63213
1286924,391.595,251.8316,62.94516,51.54405
1286941,389.3385,251.2014,62.81081,51.47411
1286958,386.978,250.7222,62.66894,51.42078
1286974,384.0696,250.0478,62.49225,51.34553
1286990,381.5237,249.2219,62.33585,51.25304
1287006,379.2434,248.4319,62.19437,51.16421
1287024,377.0419,247.6627,62.05651,51.07739
1287039,374.8228,246.9336,61.91626,50.9948
1287057,372.5557,246.3419,61.77165,50.92755
1287075,370.0987,246.1163,61.61337,50.90186
1287089,367.3312,246.0391,61.43313,50.89306
1287106,363.9801,246.155,61.21206,50.90628
1287123,360.2852,246.1418,60.96466,50.90476
1287145,357.5437,245.9919,60.77856,50.88768
1287159,354.7344,245.6616,60.5856,50.85
1287178,351.7822,245.2054,60.38031,50.79784
1287194,349.332,244.9267,60.20795,50.76593
1287206,346.4104,244.7079,60.00002,50.74084
1287225,343.9315,244.7581,59.82152,50.74659
1287239,340.8791,244.9674,59.59907,50.77059
1287258,338.0995,245.0008,59.39391,50.77442
1287273,335.2005,245.0007,59.17725,50.7744
1287290,332.2303,244.7946,58.9524,50.75079
1287306,329.5335,244.706,58.74566,50.74062
1287322,325.5522,244.3854,58.4359,50.7038
1287350,324.3456,244.1603,58.34092,50.67793
1287357,322.147,243.7046,58.16656,50.62545
1287371,319.5629,243.0187,57.95941,50.54624
1287390,317.5895,242.4581,57.79959,50.4813
1287407,315.6413,242.006,57.6404,50.42879
1287425,314.0009,241.74,57.50528,50.39785
1287440,312.4181,241.4941,57.37394,50.36921
1287456,311.073,241.1879,57.26158,50.33349
1287475,309.7684,240.9109,57.15195,50.30114
1287493,308.6829,240.6889,57.06023,50.27517
1287508,307.7453,240.3609,56.98064,50.23677
1287526,306.9976,240.0634,56.91692,50.20188
1287540,306.2778,239.769,56.85538,50.16729
1287556,305.5755,239.3182,56.79514,50.11425
1287572,304.9787,238.8203,56.7438,50.05552
1287589,304.6264,238.3369,56.71342,49.99836
1287606,304.2722,237.9268,56.68283,49.94976
1287625,304.1552,237.4303,56.67272,49.8908
1287641,304.0241,236.9457,56.66138,49.83311
1287658,303.9477,236.4799,56.65477,49.77754
1287674,303.936,235.8653,56.65375,49.70401
1287691,303.9152,235.3574,56.65195,49.64306
1287707,303.9349,234.8834,56.65366,49.58606
1287725,303.9175,234.3933,56.65215,49.52698
1287741,304.0345,233.9079,56.66228,49.46832
1287757,304.0769,233.3681,56.66594,49.40292
1287774,304.299,232.9175,56.68515,49.34819
1287791,304.4219,232.4734,56.69577,49.29415
1287807,304.4408,231.9707,56.6974,49.23282
1287824,304.4739,231.4081,56.70026,49.164
1287841,304.4987,230.817,56.7024,49.09148
1287857,304.5197,230.2078,56.70421,49.01653
1287874,304.4584,229.418,56.69892,48.91902
1287890,304.6581,228.3201,56.71616,48.78283
1287907,304.8805,227.4245,56.73533,48.67118
1287926,304.925,226.7092,56.73918,48.58167
1287943,305.0188,225.9615,56.74725,48.48775
1287961,305.1064,225.1426,56.7548,48.38449
1287978,305.2045,224.4099,56.76324,48.29174
1287993,305.2057,223.7673,56.76334,48.21011
1288010,305.2502,223.2508,56.76717,48.14432
1288027,305.1277,222.9433,56.75663,48.10506
1288043,304.9779,222.3927,56.74373,48.03463
1288062,304.9984,221.8571,56.74549,47.96593
1288075,304.7932,221.4017,56.72781,47.90738
1288092,304.5641,221.019,56.70805,47.85807
1288111,304.215,220.6903,56.67789,47.81564
1288129,303.8527,220.4591,56.64654,47.78576
1288146,303.2955,220.3486,56.59822,47.77146
1288163,302.7307,220.1777,56.54913,47.74934
1288179,301.9749,220.0528,56.48323,47.73315
1288196,300.2967,219.9818,56.33607,47.72395
1288213,297.8102,220.1305,56.11592,47.74322
1288229,294.5756,220.5454,55.82573,47.79691
1288245,290.4106,221.4363,55.44558,47.91183
1288260,286.7241,222.2595,55.10289,48.01756
1288278,282.346,223.6732,54.68812,48.19814
1288298,278.4767,225.0167,54.31435,48.36858
1288314,274.9404,226.1209,53.96672,48.5078
1288330,271.3303,226.6041,53.60574,48.56849
1288347,268.5403,226.8281,53.32247,48.59657
1288364,266.5189,226.9945,53.11486,48.61741
1288378,264.4955,227.4144,52.90502,48.66993
1288395,262.615,227.8529,52.70815,48.72465
1288412,261.0103,228.4228,52.53873,48.7956
1288430,259.4531,228.978,52.37309,48.86453
1288446,258.2008,229.29,52.23896,48.90318
1288461,257.0824,229.2324,52.11849,48.89605
1288479,256.2773,229.2711,52.03136,48.90084
1288496,255.2239,229.3982,51.91684,48.91657
1288513,254.2935,229.6548,51.8152,48.9483
1288533,253.5339,229.9437,51.73188,48.98397
1288547,252.7252,230.203,51.64284,49.01594
1288564,251.972,230.4423,51.5596,49.04541
1288580,251.2801,230.737,51.48285,49.08165
1288594,250.5025,231.1728,51.3963,49.13516
