Time Stamp(ms),Intersection,,Angle,
,x,y,x,y
554275.7,309.2653,249.862,57.10949,51.32476
554291.8,309.0104,249.8414,57.08795,51.32245
554309.4,308.8329,250.0606,57.07293,51.34696
554325.9,308.6649,250.485,57.0587,51.39434
554343.8,308.4825,250.8528,57.04325,51.43533
554360.1,308.4663,251.2077,57.04187,51.47481
554378.5,308.5377,251.446,57.04792,51.50127
554395.1,308.7138,251.7623,57.06284,51.53637
554410.5,308.7982,252.0974,57.07,51.57348
554429.2,308.9545,252.2017,57.08322,51.58502
554444.3,308.8496,251.6894,57.07434,51.52828
554465,308.9326,251.3312,57.08137,51.48854
554479.9,308.9282,251.0186,57.08099,51.45379
554496.3,308.8494,250.913,57.07433,51.44204
554511.3,308.7773,251.1212,57.06823,51.4652
554528.4,308.6585,251.554,57.05816,51.51327
554545.8,308.2139,251.7583,57.02046,51.53592
554567.4,307.9676,251.6913,56.99954,51.52849
554578.9,307.7849,251.4925,56.98401,51.50644
554594.7,307.5848,251.4653,56.96698,51.50342
554612.5,307.4355,251.8354,56.95427,51.54447
554628.9,307.2141,252.3453,56.9354,51.6009
554646.9,306.9655,253.1133,56.91419,51.68562
554661.2,306.4756,253.8548,56.87231,51.76713
554678.3,306.011,254.3255,56.83252,51.81871
554693.3,305.1982,254.9604,56.7627,51.8881
554711.5,304.2907,255.7904,56.68443,51.9785
554728.8,303.2541,256.9182,56.59463,52.10074
554745.1,301.8371,258.1717,56.47118,52.23584
554760.6,299.1932,259.3233,56.23868,52.35923
554778.1,297.1413,259.8312,56.05627,52.41342
554794.2,294.7115,260.3502,55.83802,52.46867
554813.9,292.3592,260.7401,55.62436,52.51009
554827.2,289.9204,261.3474,55.40036,52.57444
554843.9,286.856,262.097,55.11525,52.65361
554860.8,284.0702,262.8005,54.85249,52.72765
554876.6,280.8585,263.7591,54.54525,52.82814
554893.1,276.8311,265.4123,54.15331,53.00035
554909.9,272.7461,267.1776,53.74805,53.18273
554926.7,267.7417,269.4184,53.24069,53.41203
554943.9,263.0367,271.6025,52.75246,53.63317
554960.1,257.3958,273.8904,52.15232,53.86237
554977.3,252.2192,276.0167,51.58696,54.07315
554993.7,246.7883,278.1306,50.9783,54.28059
555013,241.0053,280.7579,50.31218,54.53555
555026.9,235.1173,283.2546,49.6142,54.7749
555043.8,228.9234,285.7528,48.85776,55.01161
555063.5,222.4586,288.4756,48.04307,55.26645
555077.9,216.5351,290.9893,47.27326,55.49885
555096.9,209.9505,293.7006,46.39044,55.74648
555113.3,204.2517,296.2861,45.60259,55.97973
555129.9,198.0188,299.1734,44.71481,56.23693
555147.3,192.1894,301.4974,43.85908,56.44147
555164.8,186.2889,303.6731,42.96717,56.63098
555180.1,182.2213,305.177,42.33685,56.76088
555194.2,177.6186,307.2119,41.60805,56.93521
555210.7,173.2835,309.4244,40.90623,57.12293
555227.9,169.7446,311.7675,40.32203,57.31968
555244.8,166.0557,313.8239,39.70211,57.49063
555261.6,163.029,315.5495,39.18502,57.63287
555285.3,160.049,317.315,38.66837,57.77724
555298.3,157.7085,318.9291,38.25727,57.90823
555310.3,154.998,320.9244,37.77533,58.06885
555328.2,152.9602,322.6313,37.4088,58.20512
555345.6,150.933,324.3239,37.04058,58.33921
555366,149.9742,325.316,36.86517,58.41734
555382.4,149.0629,326.1823,36.69769,58.48528
555396.6,148.1188,327.0021,36.52343,58.54934
555412.9,147.2626,327.5273,36.3647,58.59026
555432.4,146.4892,327.8713,36.22075,58.617
555449.3,146.3016,328.0061,36.18578,58.62747
555461.9,145.3749,328.8297,36.01245,58.6913
555482.9,144.4439,329.6003,35.83755,58.75081
555499.2,143.7609,329.8295,35.70876,58.76847
555515.3,143.3746,329.8053,35.63572,58.76661
555529.2,143.2348,329.8655,35.60926,58.77125
555546.7,142.6066,330.039,35.49012,58.7846
555566.4,142.0026,329.9385,35.37525,58.77686
555579.3,141.5167,329.8286,35.2826,58.76841
555595.6,140.786,329.475,35.14286,58.74115
555613.2,139.8477,328.5432,34.96273,58.66912
555631.3,139.3603,327.2909,34.86885,58.57185
555650.8,138.9494,326.0691,34.78952,58.47643
555665.9,138.4575,324.5229,34.69437,58.35492
555681.6,138.0238,322.758,34.61029,58.21519
555698.8,137.4322,320.6111,34.49533,58.04373
555715.4,136.8545,317.0504,34.38276,57.75567
555734.4,136.9333,313.3033,34.39814,57.44751
555754.4,136.6341,310.989,34.33974,57.25454
555768.1,135.8222,307.9357,34.18085,56.99683
555783.4,135.3564,303.8488,34.08943,56.6462
555799.7,136.1246,298.7232,34.2401,56.19706
555817.6,136.9317,294.3454,34.39782,55.80492
555834.6,136.4343,290.0798,34.30069,55.41508
555850.1,136.3491,284.8975,34.28403,54.93089
555867.8,137.191,279.236,34.44837,54.38824
555884.8,137.3216,274.8591,34.4738,53.95866
555899.8,137.0209,270.0042,34.41522,53.47158
555914.6,137.3177,264.7949,34.47305,52.9362
555931.9,137.5271,259.9585,34.5138,52.42699
555948.7,137.5063,254.9819,34.50975,51.89045
555965.5,138.3759,249.7067,34.67856,51.30737
555983.2,139.6399,245.1505,34.92273,50.79156
555999.8,140.5509,241.7816,35.09781,50.40269
556014.7,140.9366,237.7759,35.17171,49.93187
556032.2,141.5009,234.0355,35.27959,49.48375
556048.5,142.1943,230.3007,35.41174,49.02798
556065.4,142.2439,227.0787,35.42118,48.62796
556082.4,141.9316,223.9416,35.36172,48.23228
556097.8,141.9655,219.7403,35.36817,47.69262
556114.9,142.8096,215.7362,35.52866,47.16769
556131.4,143.986,212.6108,35.75125,46.75061
556149.4,144.5592,210.0862,35.85926,46.40893
556166.5,145.1761,207.6975,35.97516,46.08164
556181.3,146.9695,204.9907,36.31021,45.70602
556198.6,148.5047,202.79,36.59475,45.39686
556214.1,149.7746,200.6711,36.82854,45.09597
556230.6,151.3566,198.525,37.11781,44.78794
556248.9,153.1576,196.4626,37.44445,44.48879
556265.7,154.779,194.5283,37.73611,44.20542
556286.6,155.845,193.0251,37.92661,43.9833
556298.9,157.0845,191.5507,38.14688,43.76381
556315.3,158.8887,189.9782,38.46516,43.52792
556333.2,160.218,188.7052,38.69787,43.3356
556349.6,161.7734,188.0129,38.96825,43.23049
556368.5,163.4491,187.4893,39.25726,43.15075
556385.3,165.3545,187.2881,39.58301,43.12007
556402.9,167.4827,187.4203,39.94326,43.14023
556418.6,169.9439,187.9489,40.35521,43.22076
556434.3,172.9301,188.7655,40.84834,43.34474
556450.9,176.7348,190.2505,41.46619,43.56889
556468.1,180.5125,191.5083,42.06822,43.75746
556483.9,186.2402,193.439,42.9597,44.04462
556503.4,189.4611,194.5197,43.44994,44.20415
556515.6,194.5107,196.5073,44.20283,44.49532
556533.2,200.6369,199.3711,45.09108,44.90978
556549.3,207.132,202.294,46.00359,45.32671
556573.6,214.4742,205.3638,47.00006,45.75809
556587.9,220.775,208.0397,47.82658,46.12877
556605.1,228.179,211.6941,48.76527,46.62704
556621,235.1701,215.6063,49.62056,47.15048
556636.3,242.9743,220.3277,50.5411,47.76876
556653.8,251.4355,226.0779,51.50011,48.5024
556669.2,259.1089,231.006,52.33631,49.11469
556686.9,266.6309,235.8338,53.12641,49.70022
556703.4,275.0633,240.8533,53.9789,50.29441
556719.5,281.8487,244.3143,54.64047,50.69564
556734.8,288.2334,247.681,55.24392,51.07946
556751.9,294.1418,251.7021,55.78649,51.52969
556768.8,299.6214,256.4984,56.27653,52.05532
556785.3,304.6769,262.1212,56.71778,52.65615
556802.6,309.5708,267.5593,57.13528,53.22197
556822.5,313.577,272.4306,57.47019,53.71642
556835.9,318.1803,276.6859,57.84758,54.13904
556852.9,322.4663,280.3806,58.19199,54.49912
556866.4,326.8115,284.5171,58.53447,54.89487
556883.8,330.7325,288.6082,58.83788,55.27878
556902,334.2357,291.7237,59.10453,55.56623
556918.8,337.912,295.0356,59.37998,55.86728
556935.9,341.3406,298.5119,59.6329,56.17831
556954.8,344.146,301.7586,59.83704,56.46432
556970,346.5274,305.6722,60.0084,56.80345
556987.1,348.6943,310.107,60.16278,57.18046
557004.9,350.6802,313.4793,60.30302,57.4621
557019.8,352.8181,317.4255,60.45265,57.78624
557037.5,355.0338,321.4332,60.60628,58.10958
557056.8,356.7906,325.3078,60.72706,58.4167
557073.1,357.8685,329.4139,60.80073,58.73643
557089.1,358.6306,333.1659,60.8526,59.02354
557104.6,358.3392,336.68,60.83279,59.28817
557120.9,357.9464,340.3409,60.80604,59.55954
557138.7,356.6694,344.8578,60.71876,59.88845
557154.7,355.7161,349.1426,60.6533,60.19455
557171.1,354.9933,354.1552,60.60349,60.54553
557188.1,354.1153,359.9977,60.54277,60.94524
557205.5,353.6559,365.6364,60.51091,61.32172
557226.3,353.5594,371.3683,60.50421,61.69536
557244.3,353.8164,376.0934,60.52205,61.99672
557258.5,354.4176,380.2515,60.5637,62.25708
557271.6,355.1609,384.1504,60.61505,62.49719
557287.8,356.0641,388.286,60.67723,62.74771
557306.1,357.1662,393.0751,60.75277,63.03262
557323,358.0405,397.7488,60.81245,63.30539
557337.8,359.0612,402.2589,60.88184,63.56379
557356.1,360.3852,405.7444,60.9714,63.76034
557374.2,361.9685,408.6633,61.07785,63.92285
557390.3,363.3707,410.3349,61.17152,64.01508
557406,364.8817,412.1587,61.27184,64.11502
557423.2,366.1487,414.5803,61.35548,64.24661
557441.1,367.2202,416.6255,61.42586,64.35679
557456.8,368.3522,417.953,61.49987,64.42783
557474.6,369.5501,418.1941,61.57781,64.44069
557493.1,370.3797,418.5831,61.63156,64.46142
557508.1,370.8044,418.1028,61.659,64.43582
557522.8,371.3871,417.6099,61.69658,64.4095
557538.2,371.9986,417.2477,61.7359,64.39013
557554.7,372.4433,416.9674,61.76445,64.37511
557571.1,372.8788,416.9937,61.79234,64.37653
557587.8,372.9429,417.5184,61.79645,64.40461
557602.9,372.7478,418.1786,61.78396,64.43987
557619.2,372.4116,419.0877,61.76241,64.48826
557635.5,371.7858,420.5245,61.72223,64.5644
557652.6,371.2217,421.9196,61.68592,64.63792
557669.3,370.5944,423.4036,61.64544,64.71571
557686.4,370.1611,424.3926,61.61741,64.7673
557702.9,369.7394,425.2614,61.59009,64.81245
557721.7,369.3281,425.9819,61.56339,64.84978
557738.4,369.0365,426.5956,61.54445,64.8815
557753,368.8098,427.0109,61.52969,64.90292
557775.2,368.8177,427.1838,61.5302,64.91183
557788.9,368.854,427.237,61.53257,64.91457
557805.3,369.0135,427.153,61.54294,64.91024
557824.1,369.7828,427.1139,61.59291,64.90823
557839.3,370.6279,426.9256,61.6476,64.89852
557860.5,371.0772,426.8613,61.67661,64.8952
557874.6,371.3627,426.8843,61.695,64.89639
557888.5,371.5583,426.953,61.7076,64.89993
557906.4,371.7494,427.0072,61.71989,64.90273
557923.3,371.8799,426.9565,61.72828,64.90012
557939.3,371.6678,426.5316,61.71464,64.87819
557955.6,371.0178,426.1049,61.67277,64.85614
557973.5,370.386,425.9976,61.63197,64.85059
557989.5,369.9149,425.9948,61.60147,64.85045
558005.7,370.1541,425.9933,61.61696,64.85037
558022.3,370.3865,425.9272,61.632,64.84695
558042.3,370.4548,425.6114,61.63641,64.8306
558059.1,370.9392,424.7738,61.6677,64.78712
558071.8,371.742,423.4959,61.71941,64.72053
558094,372.2068,422.2674,61.74927,64.6562
558108.5,372.8713,421.262,61.79187,64.60332
558126,373.7574,420.0223,61.84848,64.53783
558141.2,375.5203,417.9667,61.96049,64.42856
558158.6,377.7144,415.1161,62.09875,64.27556
558173.4,381.751,410.9612,62.34988,64.04948
558192.7,388.7644,406.062,62.77643,63.77811
558209.4,395.0284,402.5218,63.14724,63.57871
558225.3,402.2956,398.247,63.56588,63.33416
558241.8,408.5929,394.0015,63.91896,63.08709
558259.3,414.4608,389.721,64.24015,62.83367
558273.6,421.126,384.719,64.59615,62.53189
558292.6,425.8039,380.933,64.84057,62.29933
558310.4,429.8345,377.172,65.04766,62.06469
558325.6,432.1905,373.1743,65.16724,61.81124
558341.3,434.2737,368.9864,65.27209,61.54118
558357.3,435.6615,364.667,65.34147,61.25763
558372.9,436.91,360.3471,65.40358,60.96883
558390.9,437.7877,356.174,65.44707,60.68477
558407.7,437.9187,351.3362,65.45354,60.34907
558424.3,438.6282,346.5526,65.48858,60.01019
558441.6,439.2557,342.1802,65.51949,59.69426
558457.8,439.3492,337.429,65.52409,59.34405
558475.8,439.6383,332.4708,65.53829,58.97071
558492.7,440.0574,326.7028,65.55886,58.52598
558508.3,441.056,320.9523,65.60774,58.07109
558529.4,442.058,316.1935,65.65661,57.68567
558543.3,442.6344,311.8879,65.68464,57.32973
558560.3,443.0058,306.9495,65.70266,56.91282
558579.1,443.7352,302.4305,65.73799,56.52298
558592.6,444.6672,297.8536,65.783,56.1198
558609.9,445.736,293.5062,65.83441,55.72884
558623.4,446.6174,289.4519,65.87666,55.35703
558639.5,446.7085,285.2866,65.88102,54.96764
558661.1,447.5631,280.0896,65.92184,54.47099
558677.9,448.4521,276.2683,65.96416,54.09794
558693.8,448.9643,271.9926,65.98847,53.67243
558712,449.3026,268.5034,66.00451,53.3187
558727.1,449.199,264.255,65.9996,52.87993
558748.2,449.2356,260.9824,66.00134,52.53579
558761.3,449.241,257.4885,66.00159,52.1623
558778.5,449.0091,254.2186,65.9906,51.80701
558794.9,448.7266,250.9461,65.9772,51.44572
558811.3,448.7615,248.3533,65.97885,51.15535
558824.1,448.3822,245.7264,65.96083,50.8574
558843.8,447.2834,243.3146,65.90849,50.58044
558860.4,446.3776,240.8124,65.86518,50.28962
558877,445.0623,238.3437,65.80202,49.99917
558892.9,443.7698,235.2937,65.73967,49.63541
558911.4,442.7321,232.7749,65.68938,49.33086
558927,441.6501,230.2146,65.63674,49.01737
558945,440.6029,227.964,65.58559,48.73851
558961.4,439.4703,225.8706,65.53004,48.47631
558977.7,437.9865,223.6162,65.45689,48.19088
558990.5,436.6256,221.1176,65.38946,47.87078
559011.6,435.4397,219.4366,65.33041,47.65318
559025.3,433.8974,217.7176,65.2532,47.42876
559041.4,432.3737,215.2825,65.17649,47.10754
559066.3,430.7462,212.7856,65.09406,46.77412
559084.3,429.2394,211.2555,65.01729,46.56772
559096.4,427.1667,209.9842,64.91094,46.39503
559112.5,424.8806,208.2593,64.79267,46.15897
559131,422.5613,206.5199,64.67162,45.91885
559147.6,419.5452,204.3316,64.51255,45.61378
559164.4,416.8241,202.5369,64.36744,45.36108
559180.1,414.4753,200.9592,64.24093,45.13706
559194.1,411.7239,198.8246,64.09126,44.83114
559210.5,409.3501,196.5288,63.96082,44.49845
559228.4,406.9279,194.1443,63.82646,44.14883
559244.6,404.5636,192.0111,63.69406,43.83252
559262.2,401.9308,190.2039,63.54515,43.56189
559277.8,399.1612,188.1382,63.38681,43.24955
559294.8,396.5539,186.1917,63.23613,42.95227
559313,393.8723,184.3191,63.07951,42.66352
559328.1,391.308,182.5803,62.92814,42.39299
559345.6,388.7462,180.8284,62.77533,42.11806
559363.1,386.4702,179.2669,62.63824,41.87097
559379.9,383.8063,177.3575,62.47615,41.56621
559397.9,381.8692,176.0445,62.35717,41.35496
559412.8,379.5846,174.5873,62.21562,41.1189
559433,377.4386,173.2596,62.08144,40.90232
559447.6,375.5252,172.0813,61.9608,40.70892
559463.9,373.7267,170.9271,61.84652,40.51837
559478.9,371.8972,169.9808,61.72939,40.36135
559495.4,369.9138,169.1813,61.6014,40.2281
559512.6,368.1014,168.4897,61.48351,40.11242
559528.8,365.9569,167.7413,61.34285,39.98678
559547.2,363.8774,167.0768,61.20524,39.87484
559563.5,361.6194,166.4436,61.05444,39.76783
559580.3,359.2333,165.8618,60.89351,39.66922
559597.7,356.8019,165.1857,60.72784,39.55426
559613.4,354.5187,164.8518,60.57069,39.49737
559628.6,351.8554,164.5825,60.38544,39.45139
559646.4,349.3462,164.223,60.20895,39.38993
559662.8,347.1385,163.9366,60.05208,39.34088
559678.9,344.9677,163.9072,59.89637,39.33585
559694.3,342.6335,164.0038,59.72729,39.35239
559713.9,341.2081,163.9204,59.62319,39.33811
559727.2,339.6624,163.9597,59.50957,39.34484
559743.3,338.0663,163.9587,59.39144,39.34467
559763.9,336.5056,164.2325,59.27513,39.39155
559780.1,335.2032,164.4311,59.17746,39.42552
559793,334.0094,164.5842,59.08744,39.45168
559810.1,332.802,164.9046,58.9959,39.50637
559827.4,331.6882,165.2527,58.91103,39.56568
559844.1,330.5426,165.8724,58.8233,39.67102
559860.5,329.4148,166.4517,58.7365,39.76921
559877.3,328.1607,166.9655,58.63947,39.85606
559893.9,327.2065,167.5766,58.56528,39.95907
559913.4,326.3596,168.3863,58.49916,40.09507
559926.8,325.5907,169.6063,58.43892,40.29899
559944.1,324.928,171.2113,58.38683,40.56539
559963.5,324.3186,172.5753,58.3388,40.79014
559980.6,323.9745,174.2531,58.31161,41.06452
559996.9,323.4262,176.0786,58.26822,41.36046
560010.6,322.8628,178.6237,58.22352,41.76863
560028.5,322.3317,181.0545,58.18127,42.15367
560047.9,322.0902,183.3446,58.16203,42.51221
560063.6,322.0358,186.3796,58.1577,42.98108
560079.8,321.7853,189.3244,58.13771,43.42929
560096.6,321.5414,192.4463,58.11823,43.89732
560113.1,321.4782,196.7263,58.11318,44.52722
560131.3,321.2328,201.0543,58.09355,45.15062
560144.9,321.1018,206.2295,58.08307,45.87856
560162,320.7776,210.7498,58.05708,46.49915
560178.1,320.6526,215.7451,58.04706,47.16888
560194.3,320.3812,221.0262,58.02526,47.85899
560211.9,319.9459,226.1222,57.99026,48.50797
560231.7,320.2285,230.3212,58.01299,49.03051
560246.2,320.681,234.4096,58.04933,49.52895
560262.8,320.7171,238.5449,58.05223,50.02298
560279.6,320.4204,242.5794,58.02842,50.49537
560305.4,320.1344,245.6883,58.00543,50.85305
560316.7,320.0442,247.9154,57.99817,51.10595
560329.9,320.0155,250.5818,57.99586,51.40514
560346.4,319.8731,253.2287,57.98441,51.69833
560365.6,319.7277,255.393,57.97269,51.93526
560384.4,319.2601,257.2563,57.93498,52.13727
560397.7,318.5281,259.2717,57.87577,52.35371
560415.3,317.7072,261.2882,57.80916,52.56817
560432.5,316.0615,263.4319,57.67485,52.79388
560449.2,313.4868,266.2274,57.46272,53.08475
560468.8,310.8597,268.2096,57.2437,53.28864
560483.9,307.9412,270.0586,56.9973,53.47709
560497.9,304.1697,272.0874,56.67397,53.68196
560514.6,300.241,273.7141,56.33117,53.8448
560533.1,295.7288,274.9746,55.9297,53.97011
560549.3,290.0387,275.8645,55.41128,54.05813
560565.8,284.0001,276.8421,54.84583,54.15439
560583.4,277.6943,277.3426,54.23795,54.2035
560599,270.7453,277.5187,53.54666,54.22076
560615.9,263.8833,277.8427,52.84112,54.25246
560633.3,257.487,278.151,52.16215,54.28259
560648.8,251.0284,278.4691,51.45488,54.31362
560666.6,245.5197,278.9069,50.83378,54.35625
560682.8,240.2137,279.0378,50.21951,54.36898
560699.9,235.4141,278.9842,49.64988,54.36377
560716.3,231.1197,278.8156,49.12864,54.34737
560734.3,227.0409,278.5962,48.62323,54.326
560750.3,223.1828,278.4995,48.13564,54.31658
560766.7,219.9535,278.3197,47.72029,54.29905
560783.3,216.2755,277.9285,47.239,54.26085
560803.4,213.3518,277.4521,46.85008,54.21423
560823.1,210.1796,277.0865,46.42163,54.17839
560835.3,207.6998,276.9637,46.08195,54.16634
560849.1,205.4703,276.7693,45.77295,54.14724
560865.2,203.2247,276.5585,45.45821,54.12651
560881.2,200.6842,276.3462,45.09784,54.10562
560898.8,197.9941,276.3024,44.71123,54.1013
560914.9,195.4974,276.359,44.34773,54.10688
560931.8,193.1046,276.2569,43.99508,54.09682
560948.6,190.353,276.1239,43.58431,54.08372
560969.6,188.5225,276.1123,43.3079,54.08258
560983.3,186.4313,276.3663,42.98901,54.10759
561000.8,184.3955,276.7238,42.67536,54.14277
561015.6,182.3669,277.1432,42.35963,54.18395
561032.4,179.9818,277.4326,41.98433,54.21233
561049.3,177.7639,277.6333,41.63131,54.23198
561066.4,175.6146,277.9603,41.2855,54.26396
561082.6,173.3562,278.354,40.91813,54.30239
561100.8,171.5753,278.7426,40.62552,54.34027
561114.8,169.8521,278.9904,40.33993,54.36438
561131.8,168.393,279.1248,40.0962,54.37744
561149.3,167.3359,279.4011,39.91853,54.40428
561167.2,166.455,279.5745,39.76977,54.4211
561183.2,165.885,279.8374,39.67317,54.44658
561199.1,165.7166,280.0097,39.64458,54.46326
561215.6,165.4028,280.2791,39.59122,54.48931
561233.4,165.3277,280.4965,39.57844,54.51031
561248.6,165.5724,280.7112,39.62006,54.53104
561265.8,165.7529,280.8022,39.65074,54.53981
561281.8,165.9237,280.8795,39.67973,54.54727
561298.3,166.126,280.7756,39.71403,54.53725
561314.6,166.1639,280.7501,39.72047,54.53479
561333.9,166.0607,280.473,39.70298,54.50805
561348,165.8428,279.8479,39.666,54.44759
561368.8,165.2926,278.7957,39.57247,54.34543
561382,164.7809,277.5742,39.48526,54.2262
561398.7,164.1301,276.6892,39.37403,54.13937
561414.4,163.179,275.5377,39.21083,54.02585
561432.1,162.3114,274.2034,39.0613,53.89353
561448.6,161.6789,272.4269,38.95188,53.71605
561466.4,161.4457,270.6944,38.91146,53.5415
561483.1,161.0712,269.3307,38.84644,53.40311
561502.2,160.7369,268.0411,38.78831,53.27139
561515.8,160.5472,266.219,38.75527,53.08388
561534.4,160.5526,264.2021,38.75621,52.87442
561551.9,160.3775,262.7492,38.72568,52.72226
561569.9,160.2107,261.5908,38.6966,52.60017
561585.9,160.2133,260.5706,38.69705,52.49209
561601.3,160.2898,259.8306,38.71039,52.41336
561618.2,160.3575,258.9316,38.72221,52.31733
561634.8,160.5737,258.2062,38.75988,52.23954
561652.8,160.9935,257.666,38.83293,52.18143
561670.3,161.5499,257.3594,38.92952,52.14838
561686.1,162.7404,257.3809,39.13531,52.1507
561702.2,163.9901,257.3915,39.35006,52.15185
561719.6,165.6416,257.3459,39.63184,52.14693
561732.8,168.003,257.643,40.03076,52.17896
561749.8,170.8821,257.8422,40.51092,52.2004
