Time Stamp(ms),Intersection,,Angle,
,x,y,x,y
420127.1,312.825,253.307,57.40779,51.70694
420146.1,312.0645,253.8134,57.34447,51.76258
420161.8,311.1559,254.4374,57.26852,51.83096
420178,310.038,254.7242,57.17466,51.86232
420192.2,309.0956,254.9915,57.09515,51.89149
420207.6,308.1615,255.2772,57.01601,51.92265
420223.6,306.8853,255.6771,56.90734,51.96618
420241,305.7755,256.1322,56.81231,52.01561
420257.2,304.5804,256.5911,56.70945,52.06536
420273.1,303.2423,257.0445,56.59361,52.1144
420290.3,302.2212,257.2364,56.50473,52.13511
420313,301.5719,257.048,56.44799,52.11478
420328.1,300.9174,256.7246,56.39063,52.0798
420347.3,300.3326,256.421,56.33923,52.04693
420363.1,299.6044,256.3061,56.27503,52.03448
420376.2,298.9202,256.1958,56.21452,52.02252
420395,297.9988,256.0367,56.13271,52.00525
420409.6,297.2462,255.9433,56.06564,51.99511
420431.2,296.8588,255.9984,56.03102,52.0011
420445.3,296.4383,256.3157,55.99338,52.03552
420460.6,295.994,256.6034,55.95352,52.06669
420476.3,295.7531,257.11,55.93188,52.12146
420492.8,295.4062,257.9884,55.90067,52.21613
420509.8,295.0045,258.9728,55.86447,52.32175
420527.4,294.3292,260.4289,55.80346,52.47704
420543.1,293.3708,262.0567,55.71653,52.64936
420562.6,291.8193,264.42,55.57499,52.89715
420580,290.058,266.6815,55.41307,53.13164
420595,287.613,269.1911,55.18607,53.38889
420611.1,284.1117,272.3247,54.85643,53.7058
420629.9,280.046,274.8882,54.46677,53.96155
420645.7,276.8687,276.5937,54.157,54.12998
420660.6,272.2635,278.1836,53.69965,54.28577
420676.9,267.2655,279.9856,53.19177,54.46093
420696.2,261.4355,281.8879,52.58375,54.64423
420710.4,255.6441,283.9584,51.96259,54.84187
420729.8,250.2133,285.801,51.36403,55.01615
420746.4,243.9629,287.983,50.65521,55.22058
420761.5,237.9499,290.0757,49.95251,55.4147
420779.7,231.9251,292.149,49.22725,55.60515
420794.6,224.5706,294.3381,48.31211,55.80425
420810.4,218.1358,296.1479,47.48353,55.96734
420830,211.478,297.6952,46.59783,56.10568
420847.2,205.1177,299.1131,45.72376,56.2316
420864.8,199.6468,300.4079,44.94936,56.34585
420879.9,194.0945,301.6906,44.14149,56.45838
420895.9,187.9472,303.2475,43.2205,56.59406
420914.3,183.5877,304.5191,42.55002,56.70416
420926.5,178.4635,306.1824,41.7431,56.84721
420943.5,173.8934,307.8948,41.00587,56.99335
420963.3,169.0726,309.8921,40.20995,57.16237
420980.8,165.7084,311.0593,39.64317,57.26043
420996.5,162.1927,312.2055,39.04079,57.35622
421011.1,159.491,313.3946,38.57079,57.45507
421031,157.043,314.6468,38.13954,57.5586
421043.5,154.932,316.1171,37.76352,57.67941
421066,153.3017,317.2513,37.47048,57.77205
421081.1,151.8303,318.3344,37.20401,57.86008
421096.7,151.2413,319.212,37.09681,57.93109
421113.8,150.304,320.4649,36.9256,58.03199
421131.1,149.1497,321.5544,36.71369,58.11927
421144.3,148.556,322.5823,36.60424,58.20122
421160.4,147.8114,323.7059,36.46651,58.29037
421177.8,147.568,324.5645,36.42138,58.3582
421194.8,147.191,325.6917,36.3514,58.44685
421212.4,146.8246,326.7165,36.28325,58.52705
421227.4,146.7593,327.6064,36.27109,58.59641
421244.3,146.7251,328.3597,36.26472,58.6549
421261,146.8863,328.993,36.29473,58.70393
421277.8,147.0678,329.8263,36.3285,58.76822
421298.3,147.48,330.2555,36.40506,58.80125
421311.1,147.9073,330.6243,36.48428,58.82958
421328,148.3843,331.0051,36.57251,58.85878
421345.7,148.8923,331.3724,36.66626,58.88689
421362.8,149.2453,331.8555,36.73127,58.92381
421380.5,149.5791,332.1435,36.79265,58.94578
421394.5,149.8402,332.5531,36.8406,58.97697
421411.3,150.1175,332.8574,36.89144,59.00011
421428.4,150.4494,333.131,36.95221,59.02089
421446.2,150.708,333.549,36.99949,59.05259
421463.3,151.0772,333.9295,37.06688,59.08139
421479.5,151.4122,334.3015,37.12795,59.10951
421495,152.1031,334.8904,37.25354,59.15392
421541.7,152.9599,335.4326,37.40875,59.1947
421562.6,153.4433,335.8771,37.49601,59.22807
421576.4,153.7915,336.4709,37.55875,59.27254
421591.1,154.2059,337.1726,37.63329,59.32494
421606.4,154.555,337.9465,37.69595,59.38255
421618.1,154.7799,338.5164,37.73627,59.42484
421630.4,155.1865,339.1334,37.80904,59.47052
421648.5,155.6638,339.8026,37.89431,59.51991
421663.7,156.4156,340.3402,38.02818,59.55949
421676.9,156.9579,340.9119,38.12446,59.60148
421687.5,157.4836,341.4528,38.21753,59.64111
421704.5,158.0025,341.8903,38.30917,59.6731
421716.9,158.4946,341.9505,38.39587,59.67749
421738.4,158.7847,342.0933,38.44689,59.68791
421750,159.1453,342.0627,38.51019,59.68568
421766.7,159.5516,341.9932,38.5814,59.68061
421783.6,160.0799,341.5197,38.67376,59.646
421800.2,160.653,341.057,38.7737,59.61212
421823.6,161.7856,339.9871,38.97037,59.53351
421838.5,162.9808,338.8759,39.17672,59.45146
421849.8,164.4819,337.8989,39.4342,59.37901
421869.3,166.2699,337.0703,39.73842,59.31731
421884.3,167.5007,335.9326,39.94629,59.23223
421899.5,168.6735,334.6253,40.1432,59.13394
421915.9,170.4118,333.0806,40.43296,59.01706
421933.7,171.5813,332.2733,40.62651,58.95567
421950.4,171.7493,331.6862,40.65422,58.91088
421967.6,172.7646,330.8705,40.82121,58.84846
421983.5,173.991,330.3716,41.0218,58.81017
421999.3,174.6624,330.4793,41.13111,58.81844
422016.3,174.7276,330.9337,41.1417,58.85331
422034.1,174.8998,330.8331,41.16966,58.8456
422049.8,174.9461,330.858,41.17719,58.8475
422066.8,174.5456,330.8581,41.11212,58.84751
422082.2,175.2293,329.7081,41.22311,58.75912
422098.8,176.4532,328.0525,41.42086,58.63107
422115.7,177.9939,325.8991,41.66811,58.46311
422132.1,180.3018,322.8881,42.03494,58.22553
422149.5,183.2957,320.326,42.50458,58.02084
422166.1,186.9066,317.7427,43.06178,57.81205
422182.3,191.9778,315.2289,43.82755,57.60653
422201.8,196.752,313.2665,44.53096,57.44445
422216.8,202.4865,311.97,45.35396,57.33659
422232.5,208.2263,310.8919,46.15443,57.2464
422250.4,214.8295,310.1931,47.04736,57.18771
422267.5,220.8657,309.8938,47.83829,57.16251
422283.7,226.3577,309.7586,48.53756,57.15112
422300.9,231.8632,309.3973,49.21968,57.12065
422317.7,236.0535,308.0805,49.72654,57.00914
422334.9,239.8642,305.4109,50.17848,56.781
422352.2,243.8295,301.0151,50.63985,56.3992
422370,247.4771,298.037,51.0564,56.13611
422385.3,251.01,296.3074,51.45283,55.98165
422402.4,254.6493,295.8097,51.85413,55.93696
422418.7,257.9842,296.4215,52.21568,55.99188
422434.4,261.5755,298.7473,52.59856,56.19919
422450.9,264.3081,300.3333,52.88547,56.33929
422468.8,267.3044,300.7206,53.19577,56.37335
422485.5,270.7189,299.3543,53.54399,56.25293
422500.7,273.9198,297.4266,53.8653,56.08174
422519.1,276.459,294.8672,54.11672,55.85207
422534.8,279.654,292.3299,54.4288,55.62168
422551.2,282.4946,290.8299,54.70234,55.4842
422567.8,285.7489,290.6492,55.01124,55.46756
422586.3,288.7723,291.287,55.29403,55.5262
422602.7,292.0486,292.2442,55.59598,55.61385
422618.8,295.4693,293.2913,55.90635,55.7093
422633.6,298.2531,293.7172,56.15532,55.74799
422651.1,300.5314,293.8462,56.35671,55.75969
422666.6,303.1765,293.2141,56.5879,55.70227
422683.4,306.2086,292.4676,56.84945,55.63425
422700.9,308.9238,291.8508,57.08062,55.57787
422717.6,311.2844,291.6197,57.27929,55.5567
422733.1,313.6718,291.9579,57.47805,55.58767
422751,316.1085,292.401,57.6787,55.62818
422767.8,318.4907,293.13,57.87275,55.69463
422784.2,321.458,294.3853,58.11156,55.80853
422800.9,324.4311,295.7938,58.34768,55.93554
422817,327.6283,297.6748,58.59811,56.10387
422833.9,331.1963,300.6283,58.87342,56.36523
422851.6,334.4797,303.2079,59.12296,56.59062
422868,338.2729,306.4388,59.40678,56.86916
422884.8,341.554,309.7776,59.64851,57.15272
422901.5,344.6846,314.1237,59.87595,57.51542
422918.3,346.9517,317.2455,60.03874,57.77158
422934.1,349.3518,319.7205,60.20934,57.97211
422951,352.3431,321.2288,60.41952,58.09323
422968.8,355.1587,323.1592,60.61489,58.24705
422985.7,357.369,325.5259,60.76663,58.43383
423002.7,359.0088,328.2406,60.87828,58.64567
423019.6,360.8302,330.3323,61.00139,58.80715
423034.5,363.3357,332.7398,61.16919,58.99118
423053.2,365.0682,335.2192,61.28418,59.17867
423069.5,366.482,337.7959,61.3774,59.37135
423086.9,367.5976,339.1463,61.45057,59.47147
423103.5,369.2871,339.85,61.56073,59.5234
423120.3,371.2053,340.4248,61.68486,59.56571
423136.7,372.5699,341.3635,61.77256,59.63457
423151.1,373.9003,342.6872,61.85759,59.7312
423170.5,374.8973,343.7733,61.921,59.81006
423186,376.3073,344.4861,62.01022,59.86162
423204.8,378.4094,344.8222,62.14229,59.88588
423221.5,381.1204,345.1949,62.31092,59.91273
423238,383.5288,345.8136,62.45917,59.95722
423252.8,385.8164,346.3959,62.59862,59.99898
423272.3,387.6861,346.4415,62.71164,60.00225
423287.8,389.6427,346.2289,62.82899,59.98701
423302.8,391.9553,346.086,62.96649,59.97677
423319.5,393.5757,345.9576,63.06208,59.96756
423336.3,394.9625,345.7614,63.14338,59.95347
423354.2,396.4181,344.7328,63.22824,59.87943
423370.3,398.1465,343.8291,63.32836,59.81411
423388.2,399.8756,342.8469,63.42782,59.74282
423404.8,401.3248,341.9491,63.51065,59.67739
423422.5,402.1916,340.8246,63.55997,59.59508
423437.5,402.6794,338.6943,63.58765,59.43802
423453.8,403.7332,336.5114,63.64726,59.27557
423472.7,404.4825,334.8528,63.6895,59.15108
423488.7,404.5374,333.2738,63.69258,59.03173
423505.4,404.0943,331.6533,63.66763,58.90837
423521.3,403.0067,329.9404,63.60619,58.77701
423537.5,401.0065,328.0057,63.4925,58.62744
423553.4,399.4649,326.2656,63.40426,58.49181
423571.3,397.5924,325.1368,63.29633,58.40326
423587.6,395.8015,324.0171,63.19236,58.31498
423604.3,393.3003,322.463,63.04588,58.19172
423621.8,391.1849,320.7801,62.92083,58.05728
423638.1,389.2016,318.9809,62.80261,57.91242
423654.9,387.0782,317.3096,62.67499,57.7768
423671.7,384.8572,315.8091,62.54031,57.65416
423687.8,382.1171,314.2184,62.37245,57.52325
423705,378.8391,312.1766,62.16914,57.35382
423722.6,375.9143,310.5942,61.98541,57.22142
423738.6,371.8508,309.0857,61.72641,57.09431
423755.8,368.1571,308.0328,61.48714,57.00508
423772.6,364.3454,307.1787,61.23631,56.93238
423788.6,359.6929,306.3535,60.92464,56.86186
423805.7,354.3603,305.7363,60.55973,56.80895
423824.6,349.7984,305.3744,60.2409,56.77785
423843.6,344.5142,304.9849,59.86365,56.74434
423859.9,340.155,304.9543,59.54586,56.74169
423873.4,334.2448,305.1895,59.10522,56.76196
423888.1,328.6112,305.4929,58.67439,56.78804
423905.1,322.3827,306.361,58.18533,56.86251
423922.4,316.639,307.3223,57.7221,56.94462
423938,310.6581,308.8012,57.22678,57.07025
423954.2,303.677,310.6042,56.63132,57.22226
423972,298.0247,311.624,56.13502,57.30769
423991.3,293.1259,312.3629,55.69426,57.36934
424005,288.9689,313.0449,55.31227,57.42606
424021.2,283.943,314.2141,54.8404,57.5229
424038.8,279.3225,315.6094,54.39665,57.63778
424054.3,272.5575,318.1314,53.72915,57.84362
424086.2,268.1288,319.6941,53.28037,57.96998
424094.6,265.0428,320.8409,52.96197,58.06216
424108.7,260.6539,322.3842,52.50093,58.18546
424122,256.2752,323.7686,52.03113,58.29533
424140.8,252.3812,324.9398,51.60486,58.38776
424157.9,248.5282,326.0963,51.17506,58.47855
424172.1,243.737,327.1203,50.62918,58.55856
424190.8,238.7805,328.2451,50.05082,58.64602
424208.6,234.0008,329.2711,49.47956,58.72541
424222.2,228.5977,330.5104,48.81734,58.82084
424238.9,223.9508,331.6596,48.23345,58.90885
424254.8,219.2779,333.1189,47.63254,59.01997
424273.2,214.165,334.626,46.95882,59.134
424293.8,209.8026,335.7811,46.37027,59.22087
424309,205.8586,336.9183,45.82701,59.30597
424323.5,201.9289,338.0837,45.27497,59.39274
424339.9,198.4031,339.2014,44.77035,59.47554
424356.1,194.5643,339.9272,44.21072,59.52909
424373.4,191.4161,340.3868,43.74368,59.56292
424389.3,188.5377,340.7312,43.3102,59.58821
424406.6,186.0836,341.204,42.93566,59.62289
424423.2,183.5759,341.593,42.54818,59.65136
424439.5,181.4123,341.6687,42.20996,59.6569
424456.9,179.4395,341.5449,41.89838,59.64784
424475.8,177.8407,341.4564,41.64361,59.64137
424490.6,176.2268,341.2123,41.38438,59.6235
424510.9,175.0209,341.0846,41.18932,59.61414
424523.8,174.0233,340.9736,41.02707,59.606
424540.8,172.8862,341.0363,40.84115,59.6106
424557.3,171.956,340.9218,40.68829,59.60221
424573.6,171.4414,339.9483,40.60342,59.53065
424594.4,171.0518,339.5179,40.53902,59.49891
424606.8,170.8647,338.8092,40.50804,59.44653
424624.6,171.1401,337.9025,40.55363,59.37928
424647.3,171.1739,337.4733,40.55921,59.34734
424657.4,171.1469,336.9885,40.55475,59.31121
424679.5,171.2367,336.5689,40.56959,59.27987
424690.9,171.2775,336.2233,40.57633,59.25401
424707.9,171.2388,335.8932,40.56995,59.22928
424729.4,171.0532,335.5789,40.53925,59.20569
424748,170.9415,335.0468,40.52077,59.16569
424761.9,170.8512,334.7562,40.5058,59.14381
424778.9,170.6441,334.6334,40.47149,59.13454
424794.2,170.2795,334.7383,40.41099,59.14245
424812.4,169.9176,334.9244,40.35083,59.15648
424824.6,169.4294,335.121,40.2695,59.17128
424846.3,169.1146,335.0674,40.21696,59.16724
424863,168.8369,335.0049,40.17055,59.16253
424875,168.4133,335.0367,40.09961,59.16493
424894.4,168.022,335.0422,40.03395,59.16534
424912.8,167.6344,335.0391,39.9688,59.16511
424930.2,167.3551,335.0905,39.92176,59.16898
424948.7,167.1746,335.0749,39.89134,59.1678
424964.7,167.0206,335.1357,39.86537,59.17238
424983.2,167.0297,335.0222,39.86689,59.16384
425001.3,167.1156,334.9892,39.88139,59.16136
425012.8,167.2193,335.0903,39.89888,59.16896
425029.7,167.3718,335.2969,39.92459,59.18451
425046,167.5175,335.5791,39.94912,59.20571
425063.3,167.5917,335.7968,39.96161,59.22205
425080.6,167.651,335.7543,39.9716,59.21886
425095.5,167.7189,335.8055,39.98301,59.2227
425116,167.7009,335.8041,39.97998,59.2226
425129.6,167.6586,335.7719,39.97287,59.22018
425150.1,167.7323,335.6823,39.98528,59.21346
425167.3,167.7136,335.4046,39.98211,59.1926
425183.8,167.4908,335.6286,39.94463,59.20942
425197.1,167.2503,335.6512,39.9041,59.21112
425212.9,167.1812,335.3704,39.89244,59.19003
425229.9,167.3121,334.9018,39.91453,59.15477
425247.8,167.3635,334.403,39.92318,59.11717
425264.4,167.3444,334.1971,39.91997,59.10162
425281.5,167.3581,333.9789,39.92227,59.08512
425295.8,167.2647,333.7431,39.90652,59.06729
425311.8,167.2449,333.3959,39.90319,59.04099
425329.6,167.2132,332.9951,39.89785,59.01058
425346.2,167.2001,332.6107,39.89564,58.98135
425362.6,167.143,332.2747,39.88602,58.95578
425378.8,167.1949,331.8941,39.89476,58.92676
425394.6,167.1921,331.4393,39.89429,58.89201
425411.5,167.1758,330.9479,39.89155,58.8544
425431.3,167.1823,330.5198,39.89263,58.82156
425450.8,167.0751,330.3752,39.87455,58.81045
425465.6,167.0483,330.1865,39.87003,58.79594
425483.7,167.04,329.9943,39.86863,58.78116
425497.6,166.9591,329.8532,39.85497,58.7703
425514.8,166.9003,329.5475,39.84505,58.74674
425531,166.9218,329.1968,39.84867,58.71968
425551.9,166.8539,329.1384,39.83721,58.71516
425565,166.7478,328.9972,39.81929,58.70425
425580.2,166.59,328.8362,39.7926,58.6918
425597.3,166.3962,328.6914,39.75982,58.6806
425614.4,166.1997,328.3659,39.72653,58.65538
425633.4,166.1585,328.0662,39.71955,58.63214
425647,166.1292,327.8225,39.71458,58.61321
425666.9,166.2267,327.6397,39.73111,58.599
425682.4,166.3396,327.5308,39.75024,58.59053
425699.8,166.4791,327.4799,39.77385,58.58657
425713.6,166.7634,327.3548,39.82192,58.57683
425733.4,167.1961,327.2036,39.89497,58.56505
425749.3,167.6611,327.2152,39.97329,58.56596
425766.8,168.037,327.3328,40.03647,58.57511
425785.3,168.9668,327.6768,40.19226,58.60188
425799.9,170.0762,328.0787,40.3772,58.6331
425815.6,171.6975,328.8019,40.64567,58.68914
425831.9,173.2965,329.6854,40.90835,58.75737
425851.2,174.8388,330.6826,41.15976,58.83405
425865.4,177.0838,332.1815,41.52229,58.94867
425883.6,179.1123,333.5444,41.84641,59.05224
425898.5,181.7992,335.0918,42.27071,59.16908
425919.1,184.2626,336.6888,42.65477,59.28883
425931.9,186.7689,338.5287,43.04072,59.42575
425948.6,189.5484,340.4665,43.46311,59.56877
425965.3,192.2888,341.6617,43.87389,59.65639
425985.1,196.0955,342.2439,44.43523,59.6989
426002.3,199.7193,343.0055,44.95976,59.75435
426019.8,204.0146,343.9688,45.56932,59.82422
426034.4,208.0253,344.7275,46.12679,59.87905
426049,213.0762,345.0694,46.81313,59.90369
426067,218.3469,344.9489,47.51114,59.89501
426083.8,224.9761,344.522,48.36344,59.86422
426099.3,230.5947,344.4549,49.06416,59.85937
426114.6,237.899,344.6449,49.94648,59.87309
426134.9,244.5778,344.9061,50.7259,59.89193
426149.2,251.3492,345.2428,51.49054,59.91618
426167.5,258.5034,345.7049,52.27144,59.94941
426182.2,265.4091,346.0101,53.00002,59.97132
426198.5,271.8477,346.5231,53.65785,60.00809
426214.5,278.6658,347.5566,54.33278,60.0819
426231.6,285.0765,348.3757,54.9478,60.14018
426248.7,291.075,349.0345,55.50672,60.18689
426265.2,296.8372,349.2829,56.02909,60.20448
426283.5,303.0485,349.7968,56.57677,60.24078
426300.7,308.2308,350.6335,57.0219,60.29973
426317.1,313.0033,351.2783,57.42261,60.34502
426333.1,318.0732,351.8653,57.83889,60.38613
426350.9,322.9745,352.2042,58.23238,60.40982
426368.9,327.2867,352.6709,58.57152,60.44239
426385.6,331.3142,353.028,58.88244,60.46726
426402.8,335.717,353.253,59.21606,60.48291
426419.9,339.673,353.3021,59.51036,60.48633
426434.9,343.3563,353.5831,59.77983,60.50585
426451.3,346.9679,353.6458,60.03989,60.5102
426468.1,351.0517,353.4838,60.32911,60.49895
426489.4,354.2833,353.3716,60.5544,60.49116
426507,357.9533,353.4539,60.80651,60.49688
426521.8,361.524,353.548,61.04804,60.50341
426536.5,365.2267,353.6523,61.29466,60.51065
426550.1,369.9133,353.8815,61.60136,60.52656
426569.1,373.8348,354.3419,61.85341,60.55846
426586,377.6567,354.7162,62.09513,60.58435
426602.7,381.6176,354.8121,62.34165,60.59098
426619.9,385.2905,355.0661,62.56668,60.60851
426642.8,388.9096,355.1113,62.78513,60.61163
426656.3,391.144,354.9125,62.9184,60.59791
426670.8,393.2738,354.3079,63.04432,60.55611
426692.5,395.7099,353.6169,63.18702,60.5082
426706.5,397.2152,353.3303,63.2745,60.48829
426721.2,398.1394,352.8975,63.32795,60.45818
426736.2,399.5235,352.2534,63.40762,60.41325
426753.3,400.8357,351.519,63.48275,60.36188
426769.4,402.1059,350.6063,63.5551,60.29781
426789.8,403.2059,349.5531,63.61747,60.22357
426809,404.1805,348.8003,63.67249,60.1703
426820.5,405.4017,347.5724,63.74113,60.08303
426835.3,406.6626,346.306,63.81166,59.99254
426853.7,407.697,345.1223,63.86926,59.90751
426869.6,408.5276,343.7035,63.91534,59.805
426888.9,409.1005,342.5329,63.94703,59.71996
426903.9,409.8576,341.2919,63.98881,59.62933
426919.6,410.5349,340.4327,64.02608,59.5663
426937.1,411.1111,339.5192,64.05771,59.49901
426953.3,411.2746,338.4106,64.06667,59.417
426970.2,411.5725,337.1559,64.08298,59.32369
426987,411.7066,335.9979,64.09032,59.23712
427003.4,411.7968,334.9755,64.09525,59.16032
427019.6,411.7211,333.8335,64.0911,59.07413
427035.6,411.8246,332.3799,64.09676,58.96379
427053.5,411.7671,330.9472,64.09362,58.85434
427070.7,411.5648,329.5604,64.08256,58.74773
427087.3,411.3213,327.8576,64.06922,58.61594
427104.8,411.1611,325.8914,64.06044,58.46251
427123.5,411.3639,323.4418,64.07156,58.26945
427138.4,411.667,321.5131,64.08815,58.11597
427151.2,411.7961,319.0985,64.09521,57.92192
427169.8,411.7217,316.3226,64.09114,57.69622
427191.2,411.8212,313.7401,64.09658,57.4837
427207.2,411.5797,311.3752,64.08337,57.28689
427222.7,410.9325,309.28,64.04791,57.11074
427238.2,409.6156,307.2701,63.97547,56.94018
427253.4,407.299,305.2231,63.84712,56.76484
427270,404.9085,303.3765,63.71345,56.60526
427287.5,402.4867,301.8307,63.57672,56.47063
427303.8,400.0596,300.2401,63.43836,56.33109
427320.7,398.0918,298.5843,63.3252,56.18473
427336.9,396.4829,297.0057,63.23201,56.04416
427352.5,395.3126,295.2882,63.16384,55.89004
427369.4,394.2304,293.5453,63.10052,55.73239
427387.6,392.9506,292.1867,63.02528,55.6086
427403.3,391.5471,290.9895,62.94231,55.49887
427419.9,390.0042,289.8963,62.85057,55.39813
427436,388.1436,288.6356,62.73916,55.28132
427458.3,386.5064,287.4709,62.64043,55.1728
427475.4,385.1388,286.7071,62.55745,55.1013
427486.9,383.4133,285.8304,62.45209,55.01891
427505,381.6993,285.0741,62.34669,54.94757
427521.2,379.2998,284.1453,62.19789,54.85962
427541.4,377.3755,283.5264,62.07748,54.8008
427554.3,375.0088,282.8342,61.92807,54.7348
427569.2,371.6935,282.1178,61.7163,54.66627
427589.3,367.1775,281.3809,61.42306,54.59553
427609,362.2898,280.9084,61.09936,54.55005
427621.7,356.3589,280.7377,60.69746,54.53359
