Time Stamp(ms),Intersection,,Angle,
,x,y,x,y
797115.2,317.8898,244.9174,57.824,50.76487
797133.6,318.4504,245.3589,57.86948,50.81541
797146.8,319.0086,245.9338,57.91466,50.88106
797162.2,319.6229,246.6573,57.96424,50.96342
797182.1,320.0649,247.5075,57.99984,51.05983
797197.5,320.2452,248.2816,58.01434,51.14727
797216.3,320.3493,248.6902,58.0227,51.19329
797230.2,320.256,248.6888,58.01521,51.19313
797249.6,320.1299,248.6051,58.00506,51.18372
797268.1,319.8959,248.3933,57.98624,51.15987
797281.6,319.7906,248.3587,57.97776,51.15596
797298.1,319.7576,248.5269,57.9751,51.17491
797314.8,319.821,249.0099,57.98021,51.22924
797330.9,320.0133,249.8832,57.99569,51.32713
797349.9,320.1991,250.6326,58.01064,51.4108
797364.9,320.3985,251.4133,58.02666,51.49765
797381,320.5923,252.0199,58.04222,51.5649
797399.1,320.7956,252.385,58.05853,51.60528
797414.3,321.0122,252.5145,58.07589,51.61959
797432.5,321.2147,252.4721,58.0921,51.61491
797449.8,321.4893,252.2876,58.11406,51.59452
797465.9,321.7471,252.2482,58.13465,51.59016
797485.4,322.0121,252.422,58.1558,51.60937
797500.4,322.2808,253.112,58.17722,51.68548
797515.1,322.5161,253.989,58.19595,51.78185
797530.8,322.7578,255.1786,58.21517,51.91191
797548.5,322.9317,256.7067,58.22899,52.07787
797566.6,323.046,257.8242,58.23807,52.19847
797582.9,323.1121,258.9373,58.24331,52.31794
797598.3,323.0075,260.3536,58.23501,52.46903
797615.9,322.852,261.6192,58.22266,52.60318
797632.3,322.4907,263.3315,58.19393,52.78336
797651,322.0345,265.1049,58.15759,52.96843
797668.3,320.983,267.2095,58.07354,53.18601
797685.6,319.7537,269.0311,57.97479,53.37258
797711,315.0797,273.3782,57.59425,53.81127
797733,313.0907,274.5774,57.42987,53.9307
797743.7,310.7259,275.6758,57.23248,54.0395
797753.8,307.9106,276.8274,56.9947,54.15295
797765.8,302.9845,278.0618,56.57121,54.27387
797782.3,298.4533,279.311,56.17311,54.39553
797799.3,293.3842,280.4504,55.71775,54.50587
797816.4,288.4904,281.6105,55.26782,54.6176
797841.5,283.7557,282.424,54.82261,54.69558
797854.6,280.6838,283.028,54.5284,54.7533
797866.3,276.7355,284.0259,54.14392,54.84829
797882.8,272.6456,285.2366,53.73798,54.96292
797899.8,268.9269,286.5486,53.36195,55.08643
797915.9,264.6187,288.2222,52.91784,55.24287
797934.7,261.1033,289.914,52.5486,55.39977
797951.3,257.6705,291.6425,52.18192,55.55879
797965,253.8237,293.8374,51.76371,55.7589
797984.6,250.2356,295.934,51.36652,55.94813
797999.8,247.5623,297.7175,51.06604,56.10767
798013.6,244.172,299.9097,50.67927,56.30198
798035.2,241.6349,301.6111,50.38562,56.45142
798051.6,239.3523,303.2079,50.11826,56.59062
798066.6,237.269,304.907,49.87161,56.73762
798082.3,235.0437,306.878,49.60536,56.90672
798101.6,233.2905,308.5991,49.39351,57.05313
798116.3,232.1483,310.1143,49.25451,57.18108
798132.3,230.9325,311.4366,49.10567,57.29202
798149.6,229.8375,312.7444,48.97087,57.4011
798167.7,229.1809,313.5904,48.88967,57.47131
798182.9,228.4103,314.718,48.79405,57.56447
798200.6,227.7333,315.8611,48.70974,57.65843
798217.4,227.2268,316.9911,48.64648,57.75084
798232.9,226.515,318.3344,48.55731,57.86008
798251.4,225.9095,319.9914,48.4812,57.99392
798268.1,225.1098,321.9175,48.38034,58.14826
798283.1,224.1688,324.2769,48.26114,58.3355
798300,223.0229,327.1511,48.11523,58.56096
798317.2,221.6273,330.4771,47.93641,58.81828
798337.8,220.4773,332.8042,47.78811,58.99607
798352.4,219.1513,335.0419,47.61606,59.16533
798369.9,217.8022,336.8793,47.43984,59.30305
798385.5,216.276,338.2243,47.23907,59.40317
798403.4,215.4468,339.093,47.12934,59.46753
798418.9,214.5576,339.8444,47.01117,59.52299
798433.6,213.8976,339.9446,46.92312,59.53038
798450.6,213.479,340.0722,46.86712,59.53977
798465.4,213.4101,339.6795,46.8579,59.51083
798482.4,213.3703,339.1544,46.85257,59.47207
798500,213.4851,338.3922,46.86794,59.41563
798515.4,213.9862,337.1699,46.93496,59.32474
798532.1,214.346,335.7861,46.98297,59.22124
798549,214.7334,333.7372,47.03458,59.06684
798565,215.2596,330.7391,47.10451,58.83838
798583.4,215.7782,328.3624,47.17325,58.65511
798598.4,216.4439,324.9536,47.26123,58.38885
798615.8,217.0632,321.6714,47.34282,58.12861
798632.9,217.7567,318.4988,47.43388,57.8734
798648.9,218.6921,314.9264,47.55622,57.58163
798670.1,219.4413,312.0433,47.65379,57.3427
798685.2,220.1535,308.6432,47.7462,57.05687
798702.7,220.6429,305.7751,47.80952,56.81228
798715.2,221.2422,302.7316,47.88684,56.54921
798732.4,221.8523,299.6176,47.96532,56.2762
798750.9,222.2347,296.8426,48.01439,56.02958
798766.8,222.6939,293.6827,48.07318,55.74486
798781.9,223.2543,290.1324,48.14476,55.41993
798799.9,223.7078,287.1676,48.20254,55.14444
798815.1,224.1281,283.2594,48.25597,54.77536
798835.3,224.3487,280.0749,48.28397,54.46957
798850.1,224.5558,276.5524,48.31023,54.12591
798866.4,224.6623,272.3806,48.32372,53.7114
798886.3,224.7481,268.5639,48.33459,53.32488
798902.4,224.8141,264.6428,48.34294,52.92035
798919,224.8887,260.372,48.35238,52.47099
798935.4,225.1158,255.6593,48.3811,51.96424
798952,225.4837,251.0585,48.42755,51.45823
798968.5,225.8334,246.6396,48.47162,50.96142
798985.2,226.2679,241.7851,48.52628,50.4031
799001.6,226.8077,237.0151,48.59401,49.84138
799019.1,227.4025,232.7414,48.66845,49.32678
799033.4,228.2315,228.3722,48.77181,48.78932
799052.1,229.0165,224.3513,48.8693,48.2843
799068.7,229.8788,219.9735,48.97596,47.72287
799086.3,230.9023,215.9547,49.10196,47.19661
799101.4,231.9378,211.657,49.2288,46.62203
799119.6,233.0153,207.406,49.36009,46.04143
799134,234.3115,202.9981,49.5171,45.42625
799151.5,235.511,199.3609,49.66151,44.90831
799166.7,237.2991,195.427,49.8752,44.33743
799186,239.1099,191.619,50.08969,43.77401
799202.6,241.2199,188.0949,50.33722,43.24295
799220.1,243.6034,183.6794,50.61377,42.56427
799241.9,245.6403,181.3984,50.84756,42.20778
799253.9,247.9894,178.3121,51.11431,41.71894
799270.3,250.5334,174.8363,51.39975,41.15936
799287.4,253.1979,171.3776,51.69493,40.59287
799307.9,255.3192,168.4332,51.92723,40.10294
799320.5,257.8871,164.4879,52.20523,39.43523
799339.5,260.148,161.194,52.44716,38.86778
799353.8,262.5136,157.6717,52.69749,38.25078
799371.8,264.8994,154.0871,52.94707,37.61193
799390.1,267.4489,150.5176,53.21062,36.96469
799406.8,269.7021,147.3002,53.44088,36.37168
799419.9,272.02,143.9572,53.67518,35.74582
799435.8,274.647,140.2422,53.93761,35.03855
799454.9,276.8425,137.449,54.15443,34.4986
799472.4,279.0856,135.0482,54.37363,34.02883
799488,281.2424,132.844,54.58221,33.59291
799505.4,283.218,131.028,54.77141,33.23041
799522.4,285.2153,129.9161,54.96091,33.00696
799539.6,287.0583,129.3755,55.1342,32.89792
799554.8,289.5976,129.1729,55.37052,32.85697
799572.6,292.1931,128.7728,55.60919,32.77603
799591.5,294.6121,128.7594,55.82904,32.77332
799605.8,297.5503,129.3466,56.09277,32.89209
799621.6,300.4471,130.3369,56.3493,33.09167
799639.1,303.7049,131.4537,56.63374,33.31566
799653.9,307.1175,132.6205,56.92716,33.54846
799670.6,310.4787,133.7748,57.21172,33.77754
799688.5,314.266,135.3493,57.52718,34.08804
799703.6,317.8529,136.6626,57.821,34.34531
799719.9,321.409,137.9881,58.10764,34.60336
799736.2,325.382,139.7579,58.42253,34.94544
799753.5,329.4866,141.1593,58.74204,35.2143
799770.7,333.4854,142.1479,59.04778,35.40291
799786.8,338.4334,143.4008,59.41869,35.64067
799804.6,343.4525,144.8,59.78681,35.90454
799820.8,348.746,146.1996,60.16645,36.16673
799837.4,353.5854,147.8012,60.50601,36.46463
799852.9,358.8263,149.1623,60.86589,36.716
799870.4,364.1915,149.3428,61.2261,36.74921
799888.4,368.6902,149.3788,61.5219,36.75583
799903.4,373.0572,150.063,61.80376,36.88144
799920.4,377.8639,151.1787,62.10813,37.0854
799937.3,382.3156,152.2948,62.38468,37.28833
799952.6,387.0873,153.4483,62.67554,37.49692
799970,391.4158,153.8908,62.93453,37.57663
799986.9,395.1779,154.1549,63.15598,37.62412
800002.6,399.3049,154.5536,63.39507,37.69571
800020.7,403.5991,155.2825,63.63969,37.82621
800039.1,407.2636,156.4179,63.84516,38.02858
800052.5,411.2191,158.6058,64.06363,38.41544
800069.9,414.9293,160.9747,64.26548,38.82967
800086.9,418.5524,164.1707,64.45979,39.38099
800103.3,422.4171,167.2454,64.66405,39.90327
800120.4,426.502,170.7487,64.87666,40.48882
800137,430.2892,175.2428,65.07082,41.2253
800152.9,434.078,179.7488,65.26227,41.94743
800171.7,437.5335,185.0134,65.43449,42.7709
800186.7,441.487,190.6708,65.62878,43.63204
800203.9,444.981,196.0804,65.79811,44.43302
800220.5,448.2943,201.9087,65.95665,45.2721
800237.3,451.3046,207.4843,66.09901,46.05224
800252.8,454.5276,213.9353,66.24967,46.92815
800270.4,456.9289,220.4265,66.36077,47.78154
800287.3,459.0089,226.0983,66.45621,48.50496
800303.1,460.8473,232.2194,66.53996,49.26317
800323.6,462.099,237.2348,66.59666,49.86754
800337.7,463.0295,243.1096,66.63865,50.55675
800356.2,463.6038,248.7222,66.66449,51.19689
800370.8,463.6849,254.5166,66.66814,51.83962
800388.4,462.9485,260.4751,66.635,52.48195
800404,462.2749,266.2067,66.60461,53.08261
800421.8,461.1948,271.1544,66.55573,53.588
800438,459.6136,276.6587,66.48383,54.13637
800454.5,458.1949,282.1453,66.41895,54.6689
800471.5,456.2648,287.4504,66.33015,55.17088
800488.5,454.3753,292.879,66.2426,55.67178
800507.4,451.8717,298.313,66.12565,56.16064
800523.7,449.5376,302.8722,66.01564,56.56144
800538.1,447.2305,306.7526,65.90597,56.896
800553.7,444.3813,310.6365,65.7692,57.22498
800571.4,441.9727,313.8824,65.65246,57.49548
800589.9,439.7076,316.6016,65.54169,57.71904
800604.9,437.7225,318.401,65.44385,57.86548
800622.3,436.1405,319.8732,65.36533,57.98441
800639.8,435.3106,320.6655,65.32396,58.04809
800654.8,434.5153,321.7114,65.28419,58.13181
800672.6,433.476,323.0017,65.23203,58.23455
800689.5,432.5338,323.9461,65.18457,58.30937
800708.9,431.9274,324.76,65.15394,58.3736
800725.3,431.7595,325.2039,65.14545,58.40854
800738.6,431.752,325.6646,65.14507,58.44471
800757.1,431.7119,326.2762,65.14304,58.49263
800774.7,431.4162,327.3583,65.12806,58.5771
800791.4,431.1253,328.3542,65.1133,58.65448
800809.3,430.9397,328.8973,65.10389,58.69653
800824.9,430.7833,329.0788,65.09595,58.71056
800841.4,430.4417,329.2942,65.07858,58.7272
800858.6,430.0382,329.4115,65.05804,58.73625
800874.5,429.5876,329.2583,65.03506,58.72442
800889.3,429.1689,329.0181,65.01368,58.70587
800908.6,428.6856,328.6328,64.98895,58.67606
800925.8,428.2181,328.1997,64.965,58.64249
800939.7,427.6702,327.7596,64.93685,58.60832
800954.8,426.8453,327.3403,64.89438,58.5757
800974.9,425.959,326.9937,64.84859,58.54868
800992.1,425.1904,326.5604,64.80876,58.51485
801005.8,424.2308,325.7104,64.75887,58.44831
801025.3,423.5623,324.9983,64.724,58.39236
801040.6,422.9299,324.1317,64.69093,58.32404
801057.9,422.3472,323.3192,64.66039,58.25974
801075.1,421.7313,322.6179,64.62803,58.20405
801092.6,420.7343,321.9335,64.57549,58.14954
801111.1,419.5725,321.331,64.514,58.10141
801127.1,418.0771,320.678,64.43445,58.0491
801142.6,415.959,320.024,64.32098,57.99655
801160.7,413.6351,319.1733,64.1954,57.92797
801177.6,411.3173,318.2062,64.069,57.84969
801197.6,408.8244,317.1165,63.93177,57.76107
801211.6,404.769,315.2296,63.70561,57.60658
801238.8,401.3551,313.8132,63.51238,57.48975
801252.6,398.914,312.9633,63.37259,57.41928
801264.1,394.3723,311.6945,63.10884,57.31358
801283.2,392.0243,310.8637,62.97058,57.24404
801293.3,388.1447,309.3942,62.73923,57.12038
801306.7,382.7058,307.6779,62.40868,56.97491
801324.4,377.5477,306.3813,62.08829,56.86424
801341.1,371.7364,305.2206,61.71905,56.76463
801358.4,364.8423,304.1146,61.26924,56.66921
801374.9,358.0877,302.8663,60.81566,56.56093
801391.3,351.3049,301.7531,60.34688,56.46384
801407.8,343.9536,300.8896,59.82312,56.38819
801424.2,337.1388,299.9145,59.32241,56.30239
801440.8,330.1176,298.8281,58.79065,56.20635
801458,324.0336,297.8233,58.31629,56.1171
801473.4,317.7661,296.9205,57.81395,56.03654
801491,312.81,296.4166,57.40654,55.99144
801507.6,307.931,295.701,56.99643,55.92719
801524.1,303.8149,295.0609,56.64327,55.86955
801540.6,299.9714,294.5429,56.30742,55.82278
801557.4,296.5858,294.1428,56.00659,55.78657
801574.6,294.4752,294.1137,55.81665,55.78394
801590.9,292.3367,293.9792,55.62231,55.77176
801608.8,291.7318,293.7906,55.56697,55.75465
801626.1,291.2939,293.7419,55.52683,55.75023
801644.5,291.2656,293.7271,55.52423,55.74889
801660,292.2003,293.9579,55.60984,55.76982
801676.3,292.9758,294.1151,55.6806,55.78407
801691.1,293.9256,294.5234,55.7669,55.82102
801707.9,295.4128,294.9156,55.90126,55.85645
801724.8,296.649,295.0197,56.01225,55.86584
801741.1,298.2588,295.1092,56.15583,55.87391
801760.7,299.6607,295.3151,56.28,55.89246
801782.2,300.8,295.7004,56.38032,55.92715
801794.1,302.0385,296.5145,56.48878,56.0002
801809.9,303.1824,297.4153,56.5884,56.08073
801827.9,304.1863,298.299,56.67541,56.15941
801843.3,305.104,299.4884,56.75459,56.26479
801862,305.947,300.744,56.82703,56.3754
801875.9,306.805,302.5999,56.90048,56.53774
801892.9,307.5939,304.6867,56.96776,56.71863
801910,308.355,307.3816,57.03243,56.94968
801925.1,309.2003,311.3269,57.10401,57.28284
801942.9,309.964,315.519,57.16843,57.63036
801959.2,310.7168,321.3104,57.23171,58.09976
801975.8,311.5616,326.8474,57.30247,58.53727
801994.7,312.6088,332.1317,57.38981,58.94488
802009.9,313.9789,337.9115,57.50346,59.37994
802027.6,315.1057,342.7378,57.59639,59.73488
802043,316.1563,347.304,57.68262,60.06389
802060.7,317.2484,351.8626,57.77182,60.38594
802079.3,318.1526,355.2318,57.84533,60.61994
802094.1,319.0462,358.4924,57.91769,60.84321
802110.9,319.9471,361.9067,57.99036,61.0737
802128.9,320.6959,365.4152,58.05053,61.30712
802142.1,321.2974,368.9099,58.09871,61.53621
802159,321.9305,372.4379,58.1493,61.7641
802175.1,322.4459,375.6063,58.19036,61.96593
802192.1,322.8482,377.1236,58.22236,62.06165
802210.1,323.3,377.8152,58.25822,62.10508
802225.1,323.799,378.6207,58.29774,62.1555
802242.3,324.4877,379.3477,58.35214,62.20087
802264.7,324.7033,379.8066,58.36914,62.22943
802276.5,324.9398,379.796,58.38776,62.22878
802292.3,325.2778,379.4771,58.41434,62.20893
802309.2,325.6037,378.7454,58.43994,62.16329
802327.5,325.713,378.4783,58.44852,62.1466
802342.4,325.7531,378.3762,58.45166,62.14021
802364.1,325.8163,378.6108,58.45662,62.15488
802381.8,325.8909,378.6317,58.46247,62.15619
802393.7,326.0049,378.2436,58.47139,62.13192
802410.1,326.2278,377.9085,58.48885,62.11092
802426.3,326.5758,377.3264,58.51606,62.07439
802442.7,326.8869,376.9809,58.54035,62.05267
802459.4,327.1627,376.8695,58.56186,62.04566
802476.7,327.6365,376.4471,58.59875,62.01905
802494.8,328.2332,375.953,58.64509,61.98785
802511.3,329.03,375.3188,58.70679,61.94772
802530.8,329.983,374.4793,58.78028,61.89444
802543.9,331.0911,373.3339,58.86536,61.82145
802563.3,332.7466,371.5857,58.99169,61.70936
802584.6,334.4632,370.5532,59.12171,61.64277
802596.6,336.218,369.2841,59.25361,61.56054
802610.1,338.1965,367.7589,59.40111,61.46112
802626.3,340.6598,365.9842,59.58297,61.34464
802643.4,342.9345,364.4672,59.74919,61.24438
802660.4,345.4657,362.7246,59.93222,61.12843
802677.9,347.4738,361.358,60.076,61.03688
802694.2,349.6552,359.8131,60.23079,60.93277
802712.1,351.819,358.0297,60.38289,60.81171
802729.2,353.6041,356.5856,60.50731,60.71301
802744.6,355.2266,354.9229,60.61958,60.59862
802761.7,356.8649,353.0645,60.73215,60.4698
802778.3,358.4608,351.1159,60.84106,60.33362
802797,360.1142,348.4727,60.95311,60.14706
802814.3,361.2732,346.6288,61.03119,60.01565
802830.1,362.5062,344.3925,61.11383,59.85486
802847.4,363.8025,342.1316,61.20026,59.69071
802863.6,365.1747,339.9473,61.29122,59.53057
802879.4,366.6303,338.0326,61.38715,59.38894
802896.9,367.9381,336.5111,61.47284,59.27554
802914.9,369.0474,335.2499,61.54515,59.18097
802931.8,369.951,334.0199,61.60381,59.08823
802948.1,370.6639,332.9208,61.64993,59.00493
802964.1,371.1568,331.8781,61.68174,58.92553
802980.4,371.5836,330.9657,61.70922,58.85576
802996.8,371.9514,330.1553,61.73287,58.79354
803012.6,372.1588,329.334,61.74619,58.73027
803029.6,372.0385,328.4663,61.73846,58.66316
803048.1,371.9034,327.8163,61.72979,58.61273
803062.3,371.6473,326.7264,61.71332,58.52782
803080.9,371.494,325.601,61.70346,58.43972
803096.8,371.2956,324.2369,61.69068,58.33234
803113.3,371.1873,322.5204,61.6837,58.1963
803131.8,371.2014,320.9635,61.68461,58.07198
803148.5,371.2068,318.8982,61.68496,57.90573
803164.6,371.188,317.0973,61.68375,57.75949
803182.6,371.1324,314.999,61.68016,57.58761
803198.8,371.1345,313.261,61.6803,57.44399
803215.3,371.0894,311.5522,61.67739,57.30169
803230,370.8476,309.6348,61.66179,57.14068
803248.3,370.5195,308.0653,61.64059,57.00784
803262.7,370.0552,306.491,61.61056,56.87364
803279.4,369.4818,305.0386,61.57338,56.74895
803295.3,368.0844,301.888,61.4824,56.47563
803326.6,367.784,301.0593,61.46276,56.40308
803333.7,367.2468,299.9225,61.4276,56.3031
803345.7,366.6059,298.3907,61.38555,56.16755
803362.7,365.9333,296.8474,61.34129,56.03
803379.6,365.3605,295.0772,61.3035,55.87103
803399.8,364.9449,293.3709,61.27603,55.71654
803413.8,364.5435,291.965,61.24944,55.58832
803430.1,364.1059,290.5016,61.22041,55.45397
803450.4,363.7036,289.0553,61.19368,55.32029
803465.9,363.3877,287.3477,61.17265,55.16127
803484.5,363.1107,285.8328,61.15419,55.01915
803500.3,362.8413,284.5807,61.13622,54.9009
803514.1,362.5754,283.7386,61.11846,54.82098
803529.9,362.3392,282.9555,61.10266,54.74638
803546.1,362.2,282.0363,61.09335,54.65846
803562.8,361.9547,281.0229,61.07692,54.56109
803584.7,361.7098,280.4789,61.0605,54.50862
803596,361.4954,279.6855,61.04611,54.43187
803616.9,361.3143,278.6241,61.03395,54.32872
803633.9,361.1462,277.3591,61.02265,54.20512
803661,361.078,277.127,61.01806,54.18237
803667.7,360.9675,276.7447,61.01063,54.14482
803687.5,360.8323,276.0832,61.00153,54.0797
803700.1,360.718,275.452,60.99383,54.01738
803715.9,360.6157,274.8074,60.98694,53.95353
803732.1,360.4514,274.2819,60.97586,53.90134
803746.1,360.1995,273.7851,60.95887,53.85187
803762.5,359.982,273.2633,60.94418,53.7998
803780.6,359.6977,272.9267,60.92496,53.76613
803797.1,359.3901,272.5203,60.90413,53.72541
803812.8,359.038,272.2932,60.88027,53.70263
803830.6,358.7741,272.0382,60.86235,53.67701
803848.3,358.5874,271.7851,60.84967,53.65155
803864.9,358.4246,271.4222,60.8386,53.61501
803882,358.2613,271.0941,60.82748,53.5819
803897.4,358.1564,270.6169,60.82034,53.53367
803913.9,358.0159,270.2226,60.81077,53.49372
803933.8,357.8944,269.6983,60.80249,53.4405
803949.1,357.6313,269.1011,60.78455,53.37971
803974.9,357.3496,268.769,60.76531,53.34583
803987,357.0616,268.3434,60.74562,53.30233
803997.4,356.7304,267.8527,60.72294,53.25208
804017.2,356.3239,267.2471,60.69507,53.18988
804031.7,355.9509,266.7829,60.66945,53.14209
804048.9,355.5709,266.3244,60.6433,53.09478
804064,355.0909,265.8846,60.61022,53.04929
804081.9,354.5372,265.3301,60.57198,52.99182
804099.2,354.0473,264.8241,60.53806,52.93923
804114,353.3975,264.2786,60.49296,52.8824
804132.2,352.7608,263.8301,60.44865,52.83556
804152.6,352.0808,263.4518,60.4012,52.79597
804169.6,351.3441,263.0055,60.34963,52.74918
804181.3,350.4736,262.4969,60.28848,52.69573
804198.2,349.3445,261.9046,60.20882,52.63332
804215.6,348.2414,261.2416,60.13064,52.56324
804232.5,346.5386,260.4073,60.00919,52.47474
804253.3,345.3798,259.9015,59.92604,52.42091
804268.3,344.3304,259.478,59.85037,52.37575
804283.4,342.8521,258.6375,59.7432,52.28583
804298.2,341.3363,257.6874,59.63258,52.18374
804319,339.7994,256.7823,59.51968,52.08605
804332.4,338.1163,255.931,59.39516,51.99378
804354.4,336.5878,255.1288,59.28128,51.90647
804370,335.114,254.3494,59.17075,51.82133
804387.4,333.7561,253.6992,59.06827,51.75005
804401.3,332.3506,253.0282,58.96156,51.67625
804418.4,330.7745,252.1646,58.8411,51.58091
804435.4,329.1242,251.2908,58.71407,51.48405
804452.9,327.4239,250.5059,58.58221,51.39668
804469.2,325.2481,249.6152,58.41201,51.29713
804492.6,323.5037,248.872,58.27436,51.21374
804503.9,321.605,248.0339,58.12331,51.11933
804520.5,319.833,247.294,57.98117,51.03567
804535.1,317.8949,246.6262,57.82441,50.95989
804551.7,315.6552,245.8035,57.64154,50.86619
804569.8,313.598,244.782,57.47194,50.74934
804588.5,312.0306,243.98,57.34164,50.65718
804605.1,310.6863,243.3544,57.22915,50.58504
804620.3,309.4805,242.7639,57.12767,50.51674
