Time Stamp(ms),Intersection,,Angle,
,x,y,x,y
1017746,325.7339,241.0357,58.45015,50.31572
1017762,326.5118,241.1299,58.51106,50.32673
1017780,327.4801,241.9727,58.58658,50.42492
1017796,328.2039,243.4905,58.64282,50.60075
1017813,328.788,245.3543,58.68807,50.81488
1017834,329.3222,246.338,58.72935,50.92711
1017847,329.6279,246.6286,58.75294,50.96016
1017863,329.7484,246.3244,58.76222,50.92556
1017879,329.8515,245.5239,58.77016,50.83427
1017895,329.951,244.2866,58.77783,50.69245
1017914,330.0238,243.7101,58.78343,50.62609
1017929,330.0638,243.4556,58.7865,50.59673
1017952,330.0649,243.5303,58.78659,50.60534
1017963,329.9708,243.815,58.77935,50.63817
1017980,329.7382,244.1416,58.76144,50.67577
1017997,329.525,244.3083,58.74501,50.69495
1018013,329.2878,244.4024,58.7267,50.70576
1018030,328.945,244.3179,58.70021,50.69605
1018048,328.6526,244.2149,58.67759,50.68421
1018063,328.2438,244.0901,58.64592,50.66985
1018080,327.9013,243.9937,58.61933,50.65876
1018100,327.5327,244.0781,58.59067,50.66847
1018117,327.1868,244.264,58.56374,50.68986
1018131,326.8085,244.5865,58.53424,50.7269
1018151,326.4716,245.2864,58.50792,50.80711
1018168,326.12,245.981,58.48041,50.88644
1018188,325.7942,246.6166,58.45488,50.95879
1018201,325.4538,247.307,58.42817,51.03713
1018217,325.04,247.8695,58.39565,51.10077
1018234,324.5923,248.4111,58.36038,51.16187
1018251,324.0084,248.8906,58.31429,51.21583
1018270,323.4721,249.341,58.27186,51.2664
1018284,322.9443,249.7971,58.22999,51.3175
1018301,322.5388,250.2022,58.19776,51.36279
1018320,322.0493,250.5454,58.15877,51.40109
1018333,321.3094,250.9046,58.09968,51.4411
1018353,320.7192,251.2911,58.0524,51.48408
1018369,319.9388,251.7675,57.98969,51.53695
1018385,319.2522,252.1584,57.93434,51.58023
1018402,318.5742,252.5963,57.87951,51.62862
1018418,317.8116,253.1808,57.81765,51.69305
1018436,317.0651,253.6533,57.75688,51.74501
1018453,316.4807,254.1097,57.70915,51.79507
1018468,315.9291,254.519,57.66401,51.83988
1018483,315.3114,254.9648,57.61331,51.88858
1018502,314.7725,255.2675,57.56896,51.92159
1018521,314.1804,255.4454,57.52011,51.94097
1018537,313.8228,255.5931,57.49054,51.95704
1018551,313.3713,255.7725,57.45314,51.97655
1018573,312.8921,256.0345,57.41337,52.00501
1018584,312.3031,256.4578,57.36436,52.05091
1018605,311.5349,256.9963,57.30024,52.10918
1018620,310.4518,257.7631,57.20946,52.19189
1018634,308.4348,259.1666,57.0392,52.34248
1018650,306.2777,260.6986,56.85538,52.50568
1018667,303.641,262.7635,56.6282,52.72376
1018683,299.8823,265.4517,56.29955,53.00443
1018700,295.9573,267.9035,55.95023,53.25728
1018716,291.4108,270.3893,55.53756,53.51062
1018733,285.5972,272.9591,54.99694,53.76938
1018758,280.5024,275.0689,54.51089,53.97945
1018768,275.0317,277.0192,53.97577,54.17178
1018784,269.6392,278.954,53.43449,54.36083
1018802,264.1953,280.867,52.87371,54.54607
1018818,259.0844,282.8464,52.33368,54.73596
1018835,254.3616,284.7605,51.82266,54.91792
1018851,249.5529,286.8359,51.29015,55.11337
1018868,245.3657,288.7148,50.81618,55.28868
1018884,241.4613,290.5579,50.36539,55.45916
1018902,237.8496,292.3801,49.94061,55.62627
1018918,234.7289,293.9493,49.56745,55.76904
1018933,231.7684,295.5618,49.20809,55.91467
1018949,229.3997,296.9346,48.91676,56.0378
1018966,227.0378,298.2809,48.62283,56.1578
1018983,224.7667,299.6695,48.33694,56.28078
1019000,222.9183,301.2305,48.10188,56.41809
1019017,221.5575,302.5898,47.92742,56.53685
1019032,220.0704,304.2469,47.73543,56.68064
1019050,219.1051,305.8936,47.61005,56.82245
1019066,217.9926,307.6961,47.46479,56.97645
1019082,217.2653,309.3453,47.36938,57.11626
1019100,216.6052,310.688,47.28251,57.22929
1019115,216.2359,311.74,47.23378,57.31738
1019133,216.0384,312.4089,47.20767,57.37318
1019149,216.0317,312.9323,47.20679,57.41671
1019166,216.409,313.063,47.25663,57.42756
1019183,216.768,313.1404,47.30397,57.43399
1019199,217.2207,313.0952,47.36353,57.43024
1019216,217.8852,312.9429,47.45073,57.41759
1019233,218.4649,312.9642,47.52655,57.41936
1019249,219.344,312.7056,47.64114,57.39787
1019267,220.1397,312.5317,47.74441,57.3834
1019282,221.0399,312.2695,47.86077,57.36156
1019300,222.3913,312.1646,48.03446,57.35282
1019318,223.9271,312.1486,48.23043,57.35148
1019334,226.3505,312.1355,48.53666,57.35039
1019350,231.4444,311.9606,49.16845,57.3358
1019380,232.8093,311.911,49.33504,57.33166
1019388,235.3497,311.9189,49.64214,57.33232
1019399,238.787,312.1814,50.05159,57.35422
1019417,243.3218,312.4689,50.58127,57.37817
1019434,247.6195,312.8,51.07251,57.40571
1019455,252.0055,313.0077,51.5633,57.42297
1019470,256.7673,313.4129,52.08443,57.45659
1019485,262.3889,313.9863,52.68436,57.50407
1019504,268.1568,314.672,53.28323,57.56068
1019521,273.3406,315.1846,53.80752,57.60288
1019535,278.4156,315.8206,54.3084,57.65511
1019552,283.3824,316.5558,54.78708,57.71529
1019567,289.2984,317.6152,55.34282,57.80167
1019585,295.0528,318.5922,55.86882,57.88097
1019602,300.6261,319.4711,56.36504,57.95201
1019620,306.2092,320.2079,56.84951,58.01134
1019638,312.3039,320.8789,57.36443,58.0652
1019656,317.7037,321.5272,57.80887,58.1171
1019668,323.4099,321.9622,58.26693,58.15183
1019689,328.7885,322.0848,58.68811,58.1616
1019705,333.648,322.0652,59.06009,58.16004
1019720,338.7109,322.0987,59.43925,58.16271
1019734,343.7269,321.9778,59.8067,58.15306
1019751,349.1913,322.1631,60.19799,58.16784
1019772,353.9736,322.1568,60.53295,58.16734
1019785,359.2956,322.3575,60.89773,58.18333
1019802,364.3718,322.8168,61.23806,58.21986
1019821,370.4236,323.3949,61.6344,58.26574
1019839,376.4134,324.2291,62.01692,58.33173
1019856,382.083,324.855,62.37035,58.38108
1019874,387.5951,325.4514,62.70615,58.42798
1019890,393.532,326.0887,63.05951,58.47796
1019904,400.1442,327.222,63.44321,58.56649
1019924,406.0334,328.1433,63.77651,58.63812
1019940,412.4323,329.2411,64.12995,58.72309
1019954,419.2841,330.2946,64.4987,58.80426
1019973,425.9701,331.3335,64.84917,58.88391
1019990,433.0488,332.6619,65.21054,58.98525
1020006,439.5658,333.8994,65.53473,59.07912
1020025,447.8367,335.4032,65.93488,59.19249
1020047,453.4374,336.4451,66.19891,59.27061
1020059,458.8328,337.422,66.44816,59.34352
1020073,465.0731,338.41,66.73036,59.41695
1020089,473.6676,339.3202,67.10873,59.48432
1020116,477.9072,339.8283,67.29111,59.5218
1020128,481.5829,340.1783,67.44703,59.54758
1020139,485.6598,340.6704,67.6176,59.58376
1020156,488.851,341.0784,67.74942,59.61369
1020171,490.9498,341.1678,67.83531,59.62024
1020188,493.2903,341.252,67.93036,59.6264
1020205,493.9993,341.2304,67.959,59.62483
1020222,494.9593,341.3245,67.99767,59.63171
1020238,495.1779,341.2241,68.00645,59.62437
1020254,494.4982,340.9858,67.97911,59.6069
1020271,494.0724,340.7448,67.96195,59.58921
1020288,493.3459,340.4995,67.93261,59.5712
1020304,491.8906,340.2019,67.87361,59.54932
1020322,490.9662,339.9479,67.83598,59.53062
1020338,489.8759,339.5665,67.79144,59.5025
1020356,489.0923,339.1851,67.75932,59.47433
1020373,488.2457,338.722,67.72453,59.44007
1020390,487.6233,338.2418,67.69888,59.40448
1020407,486.994,337.6088,67.6729,59.35743
1020425,486.4701,336.9313,67.65121,59.30694
1020441,486.0078,336.544,67.63205,59.27801
1020454,485.6623,336.14,67.61771,59.24777
1020473,485.4262,335.4968,67.60789,59.19952
1020490,485.2628,334.9678,67.6011,59.15975
1020506,485.1654,334.3655,67.59705,59.11434
1020524,485.0526,333.9505,67.59235,59.08298
1020540,484.9427,333.5701,67.58778,59.05419
1020560,484.9309,333.0446,67.58729,59.01434
1020576,484.9211,332.6328,67.58688,58.98304
1020591,484.9187,332.2785,67.58678,58.95607
1020607,484.7214,331.8031,67.57856,58.91981
1020626,484.5202,331.4281,67.57017,58.89116
1020640,484.3874,330.9594,67.56463,58.85527
1020658,484.1948,330.5223,67.55659,58.82174
1020676,483.9754,329.9898,67.54742,58.78081
1020692,483.8615,329.4045,67.54266,58.73571
1020710,483.8418,329.0462,67.54184,58.70804
1020723,483.685,328.6222,67.53529,58.67524
1020740,483.6494,328.2362,67.5338,58.64532
1020757,483.5795,327.9322,67.53087,58.62173
1020774,483.5869,327.6542,67.53118,58.60012
1020791,483.5403,327.4491,67.52923,58.58417
1020807,483.5486,327.2072,67.52958,58.56533
1020823,483.5063,327.0388,67.52781,58.55221
1020840,483.4745,326.77,67.52647,58.53123
1020856,483.3012,326.6432,67.51922,58.52133
1020873,483.1211,326.4496,67.51167,58.5062
1020894,482.6964,326.1912,67.49386,58.48598
1020913,482.2968,325.9899,67.47707,58.47022
1020923,481.7131,325.7202,67.45251,58.44907
1020944,481.1429,325.2877,67.42847,58.41512
1020959,480.43,324.8626,67.39835,58.38168
1020973,479.5983,324.476,67.3631,58.35122
1020990,478.6108,324.0573,67.32111,58.31816
1021007,477.6043,323.7034,67.27818,58.29018
1021023,476.3104,323.4219,67.22274,58.26788
1021040,474.9341,323.1968,67.16351,58.25003
1021057,473.3389,322.9494,67.09447,58.2304
1021073,470.9586,322.7238,66.99073,58.21247
1021091,468.4395,322.3499,66.87997,58.18272
1021108,465.3574,321.9175,66.74307,58.14826
1021124,460.9368,321.1431,66.54403,58.08636
1021141,456.4147,320.5332,66.33707,58.03747
1021157,451.541,320.0064,66.11012,57.99513
1021174,445.3766,319.2984,65.81715,57.93807
1021192,439.2073,318.6797,65.51711,57.88806
1021208,433.1758,318.2239,65.21693,57.85112
1021225,426.7728,317.835,64.89064,57.81955
1021241,419.3952,317.7079,64.50459,57.80921
1021262,413.1377,317.484,64.16837,57.791
1021275,406.9094,317.2684,63.82542,57.77345
1021292,399.9193,317.0781,63.43033,57.75793
1021313,393.961,316.9031,63.08471,57.74366
1021328,387.672,316.579,62.71079,57.71719
1021345,381.4111,316.1193,62.3289,57.67959
1021360,375.5038,315.7043,61.95944,57.64557
1021375,369.3071,315.4235,61.56203,57.62252
1021391,358.0916,315.1772,60.81593,57.60227
1021422,355.5829,315.062,60.64413,57.5928
1021429,351.2684,315.0294,60.34432,57.59011
1021442,345.5278,314.9446,59.93668,57.58314
1021458,339.8385,314.8304,59.52256,57.57373
1021474,333.244,314.6744,59.02947,57.56087
1021493,328.2249,314.6789,58.64444,57.56125
1021509,323.417,314.9241,58.26749,57.58144
1021526,319.1414,315.0427,57.92539,57.59121
1021542,315.1854,315.269,57.60295,57.60982
1021559,312.0999,315.5271,57.34742,57.63103
1021576,309.1824,315.7516,57.10249,57.64945
1021592,306.39,315.9401,56.86499,57.66491
1021609,303.8167,316.1942,56.64343,57.68572
1021626,301.4991,316.5601,56.44162,57.71564
1021643,297.7941,317.0646,56.11449,57.75684
1021672,296.7307,317.1592,56.01957,57.76455
1021679,295.2372,317.3406,55.88544,57.77933
1021691,293.0938,317.8771,55.69134,57.82297
1021710,291.2246,318.4177,55.52046,57.86683
1021726,289.4243,319.2062,55.35448,57.93063
1021743,287.5433,319.937,55.17955,57.98955
1021764,286.1069,320.5321,55.04493,58.03739
1021780,285.0535,320.9888,54.94563,58.07401
1021794,283.986,321.1909,54.84449,58.0902
1021815,283.2166,321.3694,54.77128,58.10448
1021828,282.7161,321.2226,54.72352,58.09274
1021846,282.2569,321.0866,54.6796,58.08184
1021864,281.6426,321.028,54.62068,58.07715
1021881,281.1796,321.0144,54.57617,58.07606
1021897,280.7523,320.836,54.535,58.06176
1021913,280.2028,320.6992,54.48194,58.05079
1021931,279.512,320.6048,54.41504,58.04322
1021948,278.7283,320.3807,54.33887,58.02523
1021964,277.9727,320.0197,54.26517,57.9962
1021980,276.9034,319.3744,54.16041,57.9442
1021998,275.9791,318.7474,54.06943,57.89353
1022012,274.7191,317.8793,53.94476,57.82315
1022036,273.521,316.9826,53.82553,57.75014
1022047,272.2222,315.8893,53.6955,57.66074
1022065,270.7319,314.6634,53.5453,57.55997
1022078,268.9548,313.0929,53.36479,57.43005
1022094,266.8755,311.1767,53.15163,57.27027
1022115,264.8396,309.0266,52.94084,57.08931
1022132,262.9883,306.9069,52.74738,56.90919
1022145,261.0616,304.8098,52.54417,56.72924
1022162,258.87,302.3483,52.31073,56.51582
1022179,256.7306,299.9588,52.08046,56.3063
1022198,254.2874,297.0491,51.81453,56.04804
1022213,252.3231,294.5577,51.59844,55.82412
1022228,250.0077,291.6505,51.34105,55.55953
1022249,247.8492,288.761,51.09848,55.29297
1022261,245.4083,285.3842,50.82106,54.97686
1022278,243.0709,281.979,50.55227,54.65297
1022298,240.8075,278.6008,50.28905,54.32646
1022312,238.7125,275.2299,50.04279,53.9954
1022332,236.6311,271.8537,49.79559,53.65846
1022344,234.3474,268.2455,49.52143,53.29232
1022365,232.286,264.8031,49.27131,52.93704
1022380,229.9063,260.4867,48.97935,52.48318
1022398,227.7622,256.6056,48.71335,52.06693
1022413,225.6126,252.6195,48.44381,51.63118
1022429,223.4082,248.489,48.16439,51.17064
1022447,221.371,244.7789,47.90342,50.74898
1022466,219.6596,241.5341,47.68214,50.37387
1022482,218.2459,238.7874,47.49793,50.05163
1022500,217.0979,236.0826,47.34738,49.73002
1022518,216.4181,234.039,47.25782,49.48418
1022533,216.0659,232.4747,47.21132,49.2943
1022548,215.9526,230.7404,47.19633,49.08208
1022562,216.2386,229.1099,47.23413,48.88088
1022578,217.1011,227.9919,47.34781,48.74198
1022595,217.7632,226.9484,47.43474,48.61164
1022614,218.2732,226.2293,47.5015,48.52143
1022629,218.8099,225.5712,47.57159,48.43858
1022646,219.3985,224.9201,47.64822,48.35636
1022667,219.7493,224.17,47.69379,48.26129
1022683,219.9555,223.2794,47.72054,48.14796
1022698,219.9088,222.2978,47.71449,48.02248
1022714,219.8907,221.0249,47.71214,47.85883
1022733,219.6442,219.3558,47.68015,47.64267
1022752,219.411,217.934,47.64985,47.45712
1022766,219.1715,216.4523,47.61869,47.26234
1022781,218.987,214.9048,47.59467,47.05738
1022797,218.8668,212.8687,47.579,46.78527
1022815,218.7747,211.166,47.56699,46.5556
1022830,218.6594,209.1398,47.55195,46.27972
1022849,218.7211,207.4565,47.56,46.04841
1022863,218.8552,205.6559,47.57749,45.79881
1022880,219.0702,203.7231,47.60551,45.52836
1022897,219.3874,201.9303,47.64678,45.27516
1022915,219.8757,199.972,47.71019,44.99599
1022934,220.4027,198.0388,47.77846,44.71769
1022951,220.8358,196.3706,47.83442,44.47538
1022966,221.3976,194.4096,47.90686,44.18793
1022983,222.052,192.4781,47.99096,43.90205
1023002,222.6858,190.6918,48.07215,43.63519
1023018,223.3647,188.8295,48.15884,43.35442
1023034,224.0362,186.7138,48.2443,43.03229
1023052,224.7296,184.4172,48.33224,42.67871
1023067,225.3589,182.1804,48.4118,42.33045
1023083,226.1282,179.4912,48.50871,41.90659
1023100,226.8795,176.7438,48.60301,41.46764
1023117,227.4876,174.3899,48.67907,41.08678
1023133,228.3023,171.6542,48.78062,40.63854
1023150,229.226,168.7962,48.89526,40.16373
1023167,230.1772,166.2533,49.01276,39.73561
1023186,231.353,163.5892,49.15725,39.28132
1023207,232.647,161.2453,49.31528,38.87667
1023220,233.7169,159.4685,49.4452,38.56684
1023232,234.9312,157.6547,49.59181,38.24778
1023250,236.4043,156.2124,49.7685,37.99205
1023267,237.6786,155.3284,49.92032,37.83441
1023282,238.8895,154.7289,50.06368,37.72714
1023299,240.1217,154.2572,50.20871,37.6425
1023317,241.3499,153.7842,50.3524,37.55744
1023335,242.2933,153.5132,50.46217,37.50862
1023350,243.6987,153.2209,50.62477,37.45589
1023368,245.1222,152.8287,50.78832,37.38501
1023385,246.3979,152.3821,50.93392,37.30416
1023400,247.9921,151.8694,51.1146,37.21111
1023417,249.9223,151.5714,51.3315,37.15693
1023435,251.9769,151.3865,51.56015,37.12326
1023454,254.3069,151.0391,51.81667,37.05994
1023469,257.097,150.6437,52.12006,36.98774
1023487,259.7613,150.3851,52.40598,36.94044
1023501,262.392,150.3368,52.68468,36.93159
1023517,265.9794,150.5289,53.05911,36.96675
1023533,270.21,150.7241,53.49245,37.00243
1023553,274.4088,151.0544,53.91396,37.06273
1023568,279.2318,151.3495,54.38784,37.11652
1023583,283.8769,151.6584,54.83413,37.17275
1023600,289.0252,151.9167,55.31749,37.2197
1023617,294.0966,152.1521,55.78239,37.26245
1023631,299.2685,152.3766,56.24534,37.30315
1023648,304.9164,152.6227,56.73843,37.34774
1023667,309.5919,152.7203,57.13707,37.36541
1023681,314.5354,152.707,57.54941,37.36301
1023702,319.1061,152.6257,57.92254,37.34828
1023719,322.8628,152.3802,58.22352,37.30381
1023730,329.932,151.6778,58.77636,37.17628
1023762,331.1971,151.4834,58.87348,37.14091
1023769,333.3718,151.4083,59.03916,37.12724
1023780,336.9924,151.4632,59.3115,37.13723
1023802,340.0901,151.2917,59.54109,37.10599
1023815,343.4947,150.9843,59.78987,37.04994
1023836,347.1066,151.0263,60.0498,37.05761
1023848,351.1747,151.301,60.33775,37.10769
1023871,354.6498,151.4813,60.57976,37.14052
1023884,358.4055,151.3644,60.83729,37.11924
1023901,362.8313,151.0917,61.13555,37.06953
1023917,366.4181,150.935,61.3732,37.04093
1023933,370.5859,151.4338,61.64489,37.13188
1023951,374.3347,151.9106,61.88525,37.21859
1023968,377.9846,152.1727,62.11569,37.26617
1023983,381.2445,152.0212,62.3186,37.23869
1024001,384.669,152.0084,62.52884,37.23636
1024017,387.4661,151.9211,62.69838,37.2205
1024033,390.5173,151.8667,62.88115,37.21061
1024051,393.4436,151.3024,63.05431,37.10794
1024068,395.7725,150.5908,63.19067,36.97807
1024087,397.6993,150.0878,63.30252,36.88599
1024100,399.0463,150.0291,63.3802,36.87523
1024118,400.465,149.8817,63.46156,36.84821
1024136,401.125,149.7719,63.49926,36.82805
1024151,401.5822,149.8681,63.52532,36.84571
1024165,401.9572,150.0848,63.54665,36.88544
1024182,401.7428,150.6313,63.53446,36.98548
1024199,401.5651,150.9149,63.52434,37.03728
1024215,401.208,151.328,63.50399,37.11261
1024233,401.03,151.4371,63.49384,37.13247
1024251,400.8469,151.554,63.48339,37.15377
1024269,400.8603,151.585,63.48415,37.1594
1024287,400.8577,151.7639,63.48401,37.19194
1024300,400.8287,151.9479,63.48235,37.22537
1024316,400.7038,152.2879,63.47522,37.28708
1024333,400.4641,152.6193,63.46151,37.34713
1024349,400.1837,152.9279,63.44547,37.40295
1024367,399.8405,153.287,63.42581,37.46782
1024383,399.2355,153.9116,63.39108,37.58037
1024405,398.7173,154.3743,63.36127,37.66352
1024419,398.0422,155.0489,63.32234,37.78444
1024434,397.177,155.886,63.27229,37.93391
1024451,396.2816,156.7723,63.22031,38.09154
1024469,395.295,157.8482,63.16282,38.28195
1024485,393.748,159.6177,63.0722,38.59297
1024502,392.1152,161.5199,62.97596,38.92433
1024520,390.3282,163.5794,62.86988,39.27963
1024534,387.6062,166.5131,62.70683,39.77959
1024551,384.9241,169.4026,62.54438,40.26504
1024567,382.0861,172.3875,62.37054,40.75928
1024584,379.0172,175.9862,62.18026,41.34555
1024602,375.97,179.4159,61.98893,41.89463
1024619,372.6918,183.9605,61.78037,42.60793
1024635,369.3569,189.0707,61.56527,43.39095
1024652,366.0761,194.4815,61.3507,44.19852
1024673,363.5132,198.0918,61.18101,44.72537
1024685,361.2569,201.2383,61.03009,45.17683
1024705,359.1258,204.7943,60.88622,45.67857
1024718,356.6037,209.2607,60.71426,46.29626
1024739,353.6838,214.321,60.51285,46.97964
1024756,351.1977,216.9678,60.33936,47.33027
1024768,348.6396,219.0045,60.15891,47.59695
1024789,345.9087,221.1544,59.96405,47.87553
1024805,343.1336,224.0249,59.76366,48.24287
1024822,340.4643,226.9885,59.56861,48.61666
1024835,337.1969,230.2559,59.32675,49.02246
1024852,334.134,233.0587,59.09685,49.36537
1024872,330.4929,235.7838,58.81949,49.69423
1024887,326.7365,238.3263,58.52861,49.99711
1024906,323.4073,240.3403,58.26673,50.23435
1024921,319.6201,242.69,57.96402,50.50818
1024939,315.8569,245.1028,57.65809,50.7861
1024957,312.5768,247.2279,57.38715,51.02817
1024973,308.6874,249.9977,57.06061,51.33994
1024990,305.5956,252.1335,56.79688,51.57748
1025004,302.0957,254.2849,56.49377,51.81427
1025023,299.0214,256.1312,56.22347,52.01551
1025039,296.191,257.8264,55.97121,52.1987
1025055,293.2384,259.416,55.70449,52.36913
1025074,290.5403,260.7239,55.45754,52.50837
1025090,288.1871,261.4703,55.2396,52.58744
1025106,285.7671,262.3439,55.01295,52.67962
1025123,283.5986,263.225,54.80766,52.77221
1025138,281.3547,263.943,54.59302,52.84736
1025154,278.9327,264.8537,54.35876,52.94231
1025173,276.9195,265.8082,54.16199,53.04139
1025188,274.6519,267.1018,53.9381,53.17493
1025206,272.6135,268.1701,53.73476,53.2846
1025221,270.4888,269.2187,53.5207,53.39169
1025238,268.5255,270.0549,53.32095,53.47672
1025254,266.6315,270.7944,53.12648,53.55162
1025271,264.7071,271.4342,52.92705,53.61621
1025288,263.1833,271.943,52.76783,53.66745
1025303,261.5667,272.6238,52.59763,53.7358
1025320,259.9208,273.4705,52.42297,53.82049
1025338,258.5286,274.2109,52.27415,53.89427
1025354,257.0342,274.9318,52.11329,53.96586
1025371,255.4861,275.5187,51.9454,54.02397
1025389,254.3808,275.9415,51.82476,54.06572
