Time Stamp(ms),Intersection,,Angle,
,x,y,x,y
290073.9,298.7834,240.9778,56.20239,50.30896
290090.1,298.2662,241.0579,56.15649,50.31832
290106.8,297.7903,241.3362,56.11416,50.35079
290124.3,297.288,241.4209,56.06937,50.36068
290139.4,296.8026,241.4234,56.026,50.36097
290155,296.2702,241.1979,55.97831,50.33466
290172.2,295.8759,241.0434,55.94291,50.31662
290191.1,295.7125,241.1279,55.92823,50.32649
290206.3,295.8665,241.5242,55.94207,50.37272
290222.6,296.0426,241.9178,55.95789,50.41854
290238.9,296.2364,242.3324,55.97527,50.46671
290257.3,296.5244,242.8657,56.0011,50.52853
290274.1,296.7456,243.2408,56.0209,50.57192
290289.8,296.8631,243.5902,56.03141,50.61226
290306.9,296.8768,243.8021,56.03263,50.63669
290326.1,296.8746,243.8571,56.03244,50.64302
290340.1,296.8331,243.9108,56.02872,50.64921
290356.8,296.8089,243.8548,56.02656,50.64276
290372.6,296.7637,243.7974,56.02252,50.63614
290389.8,296.71,243.6025,56.01771,50.61367
290407,296.7933,243.4139,56.02516,50.59191
290422.6,296.948,243.4215,56.039,50.59279
290444.7,297.0822,243.7412,56.05099,50.62967
290458.2,297.316,244.2249,56.07187,50.68536
290472.3,297.614,245.0248,56.09845,50.77717
290489.2,297.8089,245.6201,56.11581,50.84526
290510.6,297.9597,246.2065,56.12923,50.91214
290522,297.9752,246.622,56.13062,50.95942
290538.3,297.97,246.9845,56.13015,51.00058
290554.5,297.8066,247.5967,56.11561,51.06993
290572.4,297.695,248.0771,56.10567,51.1242
290588.6,297.6097,248.6795,56.09806,51.19209
290604.4,297.4408,249.6159,56.08301,51.29721
290626.1,297.3315,250.7208,56.07326,51.42063
290641.6,297.1966,252.5179,56.06121,51.61996
290656.3,297.0273,253.9904,56.04609,51.78199
290672.2,296.7328,255.1723,56.01975,51.91121
290689,296.2609,256.1688,55.97748,52.01958
290705.4,295.7709,257.0873,55.93348,52.11902
290721.2,295.2176,258.0331,55.88367,52.22093
290738.3,294.4185,258.9605,55.81153,52.32043
290757.9,293.4736,259.5738,55.72588,52.38597
290776.3,292.5829,259.7718,55.64478,52.40709
290793.5,291.5796,259.4929,55.55303,52.37733
290809.1,289.7422,258.3601,55.38389,52.25607
290831.6,289.2909,258.0053,55.34212,52.21795
290839.3,288.3279,256.8362,55.2527,52.09188
290854.7,287.2957,254.5792,55.15641,51.84646
290872.3,286.3674,251.7975,55.06942,51.54026
290893.2,285.3718,247.6252,54.97569,51.07316
290909.5,284.6574,243.614,54.90816,50.615
290926.9,283.9852,238.5658,54.84442,50.02545
290952.6,283.1772,228.5724,54.76753,48.81419
290959.8,282.8209,223.0271,54.73353,48.11577
290973.4,282.8605,213.96,54.73731,46.93146
290993.4,283.0244,207.3294,54.75295,46.03086
291009,283.2261,201.0794,54.77219,45.1542
291021.9,283.8189,195.0449,54.82862,44.28137
291039.9,284.4825,190.0668,54.8916,43.54125
291055.8,285.0974,185.0699,54.94978,42.77961
291072.4,285.7768,179.8245,55.01387,41.95942
291090.3,286.6618,174.886,55.09705,41.16742
291107.9,287.6258,170.1652,55.18726,40.39201
291124.6,288.7068,165.1474,55.28794,39.54775
291141.2,289.6724,160.1208,55.37743,38.68091
291159.4,290.6418,155.4606,55.46689,37.85803
291175.8,291.6022,151.0483,55.55511,37.06161
291196.1,292.5045,147.093,55.63762,36.33319
291213.2,293.3864,143.7431,55.71795,35.70538
291226.5,294.193,140.8612,55.79113,35.15727
291241.6,294.8626,138.379,55.85166,34.67916
291258.3,295.6238,136.0704,55.92026,34.2295
291276.3,296.3406,133.8744,55.98462,33.79724
291293.6,297.1838,131.3269,56.06007,33.29028
291311.7,298.014,129.1448,56.13407,32.8513
291329.6,298.8128,126.2923,56.205,32.27082
291344.4,299.4651,123.6764,56.26273,31.73191
291359.3,300.2083,121.1519,56.32829,31.20577
291377.3,301.0573,118.6526,56.4029,30.67909
291393.6,301.8381,116.7055,56.47128,30.26473
291410.7,302.6204,115.024,56.53952,29.90407
291427.4,303.3504,113.8517,56.60299,29.65107
291442.1,304.0057,112.7652,56.65979,29.41544
291462.1,304.6715,112.1652,56.71732,29.28484
291477.8,305.1361,111.8173,56.75735,29.20896
291491.3,305.5302,111.8282,56.79125,29.21135
291507.8,305.8017,112.3589,56.81457,29.32704
291524.9,305.9814,112.7258,56.82998,29.40686
291542,306.0323,113.108,56.83435,29.48991
291558,306.0564,113.2813,56.83642,29.52749
291573,306.157,113.621,56.84504,29.60111
291591.3,306.2448,114.0384,56.85256,29.69144
291607.8,306.3778,114.8772,56.86395,29.87246
291627.4,306.4687,115.8182,56.87172,30.07475
291645.3,306.4869,116.3564,56.87328,30.19008
291657.4,306.5602,117.1378,56.87955,30.35703
291678.1,306.5838,118.0644,56.88157,30.55428
291695,306.6671,118.771,56.8887,30.70417
291711.8,306.7507,119.7387,56.89584,30.90869
291723.7,306.8334,120.7964,56.9029,31.13121
291740.8,306.911,121.9292,56.90953,31.3684
291760.5,306.9411,122.5814,56.9121,31.50443
291774.7,307.0139,123.4514,56.91832,31.68526
291791.2,307.1186,124.614,56.92725,31.92579
291812.3,307.2883,125.6442,56.94173,32.13789
291830.2,307.5389,126.85,56.96307,32.38492
291842.6,307.8364,128.0599,56.98839,32.63141
291857.8,308.1685,129.3698,57.01661,32.89676
291873.9,308.7592,131.0704,57.06669,33.23891
291892.2,309.9897,134.1922,57.17059,33.86007
291919.7,310.3412,135.1183,57.20016,34.04262
291926.8,311.31,137.2156,57.28143,34.45317
291941.2,312.5874,139.8925,57.38803,34.97136
291958.3,314.2568,143.2613,57.52642,35.61427
291975.4,315.8164,146.5267,57.65477,36.22776
291991.6,317.4418,150.1626,57.78756,36.8997
292008.2,319.1155,154.3165,57.9233,37.65315
292026,320.7643,158.3794,58.05602,38.3756
292042.4,322.778,162.9542,58.21677,39.17214
292059.3,324.4687,166.6721,58.35064,39.80649
292075.2,326.2138,170.6189,58.48775,40.46732
292092.6,327.9014,174.3521,58.61934,41.08062
292109.3,329.2361,177.1834,58.72271,41.53828
292125.5,330.2794,179.1329,58.80308,41.84967
292141.4,331.0938,180.4736,58.86557,42.06208
292159.2,331.8392,181.9311,58.92257,42.29139
292174.7,332.5751,183.8572,58.97865,42.5919
292192.6,333.3425,185.5415,59.03694,42.85231
292212.9,334.0773,186.8274,59.09257,43.04966
292232.3,334.7634,187.8819,59.14435,43.21056
292242.7,335.6106,189.3465,59.20807,43.43264
292263.6,336.5818,191.0786,59.28083,43.69318
292280.2,337.7068,192.6505,59.36472,43.92768
292296.8,339.1572,194.0308,59.47227,44.13208
292310.4,340.8921,195.4545,59.60003,44.34145
292330.6,341.8765,196.3342,59.67209,44.47007
292342.1,343.8439,198.1422,59.81518,44.73264
292362.5,345.4647,199.1009,59.93215,44.87092
292376.6,347.2745,200.0167,60.06179,45.0024
292392,349.2993,201.1743,60.20564,45.16772
292409.5,351.2102,202.1204,60.34024,45.30212
292426.4,353.5207,203.4575,60.50152,45.49099
292444.3,355.666,204.4812,60.64985,45.63475
292460.5,357.8216,205.3524,60.79752,45.75651
292476.8,360.2941,205.9617,60.96526,45.84135
292492.8,363.7737,206.4698,61.19834,45.9119
292514.3,366.5492,206.8108,61.38182,45.95915
292531.3,370.6822,206.9019,61.65111,45.97177
292548.4,374.5713,207.1789,61.90029,46.01006
292563.8,378.9724,207.6327,62.17747,46.0727
292576.5,384.5201,208.2043,62.51976,46.1514
292595.3,390.3644,208.7109,62.87204,46.22096
292610.1,397.0318,209.5458,63.26387,46.33522
292631.5,403.1668,210.1529,63.61525,46.41801
292646.1,409.4281,210.7782,63.96513,46.503
292659.8,415.7783,211.8444,64.31126,46.64733
292677.8,421.9113,212.9178,64.63749,46.79187
292695.2,427.6043,214.0299,64.93346,46.9408
292715,432.3439,214.8152,65.17499,47.04546
292727.2,436.9675,215.6953,65.40643,47.16228
292744.8,440.7684,216.9055,65.59368,47.32207
292763.4,444.377,217.9569,65.769,47.46012
292781.5,447.0391,218.9567,65.89682,47.59071
292797.6,448.5787,220.1073,65.97017,47.74022
292815.1,450.0817,221.0223,66.04137,47.8585
292830.8,450.2927,222.1114,66.05133,47.99857
292847.1,450.8171,223.1307,66.07607,48.12899
292866.7,450.8842,223.9332,66.07922,48.2312
292880.6,450.3839,224.6122,66.05564,48.31738
292897.1,450.2728,225.2883,66.05039,48.40289
292915.3,449.9159,226.1075,66.03354,48.50612
292931.8,449.9499,226.9772,66.03514,48.61525
292949,449.955,227.9762,66.03539,48.74002
292964.7,449.977,229.2689,66.03642,48.90056
292982,450.0547,230.6126,66.04009,49.06636
293007.9,450.1714,232.0485,66.04561,49.24231
293018.3,450.2679,233.4112,66.05016,49.40816
293030.2,450.487,235.4618,66.0605,49.65561
293049.1,450.5511,238.4214,66.06353,50.00837
293062.5,450.5665,241.7648,66.06425,50.40073
293082.1,450.4652,246.1128,66.05948,50.90146
293097.6,450.433,250.0107,66.05795,51.34138
293116.1,450.4037,254.1961,66.05657,51.80453
293132.1,450.3588,259.3314,66.05445,52.36009
293146.3,449.982,264.7507,66.03666,52.93159
293163.3,449.3549,269.9446,66.00699,53.46552
293179.5,448.4586,275.806,65.96447,54.05236
293196,447.4733,282.1442,65.91755,54.66879
293213.2,446.0201,287.8463,65.84805,55.20784
293229.8,443.8578,293.9287,65.74392,55.76718
293247.3,441.7521,299.9608,65.64171,56.30647
293262.8,439.2039,305.8449,65.51694,56.81828
293279.9,436.0171,311.2673,65.35919,57.27785
293296.9,432.4849,316.4378,65.18211,57.70565
293314.1,429.022,321.6786,65.00617,58.12919
293331.5,425.5504,326.551,64.82744,58.51412
293349.4,421.8606,331.0885,64.63483,58.86516
293364.2,418.2326,336.365,64.44274,59.26461
293381.1,414.713,341.2466,64.25379,59.62601
293396.5,410.744,346.6584,64.03756,60.01777
293413.3,406.9034,352.2222,63.82509,60.41108
293437.1,403.3456,357.2852,63.62537,60.76091
293449,399.2568,362.1113,63.3923,61.08741
293467.6,394.607,367.0179,63.12259,61.41259
293483,390.7455,370.6205,62.89472,61.64712
293500,387.2326,372.8083,62.68431,61.78783
293516.1,382.4524,375.199,62.39309,61.94014
293535,378.3048,377.392,62.13575,62.07852
293550.9,374.1425,379.5272,61.87301,62.21205
293566.3,369.6856,381.7882,61.5866,62.35217
293584.6,366.2043,383.6314,61.35914,62.46545
293597.9,362.5915,385.5232,61.11954,62.58082
293614.7,357.8875,388.3312,60.80202,62.75043
293634.7,353.3374,391.0265,60.48878,62.91142
293651.4,348.9799,393.103,60.18303,63.03426
293667.2,344.2403,394.7244,59.84386,63.12946
293684.5,340.232,395.9787,59.55153,63.20267
293700,335.5956,397.0479,59.20694,63.2648
293716.5,331.1955,398.2598,58.87336,63.33489
293732.8,326.7007,399.468,58.52581,63.40443
293749.5,322.0667,400.1391,58.16016,63.44292
293766.7,317.9647,400.7128,57.83008,63.47573
293783.3,313.8973,400.7631,57.4967,63.47861
293800.3,309.7765,400.6151,57.15263,63.47015
293818.3,306.2086,400.1754,56.84946,63.445
293833.9,302.1375,399.3848,56.49743,63.39966
293852.1,298.683,398.804,56.19349,63.36626
293867.2,295.2408,398.5504,55.88577,63.35165
293883.5,291.4504,397.975,55.54119,63.31845
293901.5,288.1031,397.5818,55.23178,63.29572
293916.3,284.6437,397.4891,54.90686,63.29036
293933,281.1395,397.1955,54.57231,63.27336
293952.2,277.5866,397.2515,54.22741,63.2766
293968.8,274.3344,397.5356,53.90656,63.29305
293983.3,270.9262,397.8518,53.56495,63.31134
294000.6,267.2071,397.8055,53.18577,63.30866
294018.7,263.3779,397.7845,52.78823,63.30745
294033.2,259.3504,397.8573,52.36212,63.31165
294050.1,255.2027,398.3063,51.91452,63.33757
294066.8,251.264,398.3864,51.48107,63.3422
294083.1,247.1694,398.2624,51.02155,63.33504
294102,242.7373,398.0903,50.51366,63.32511
294119.3,238.9093,397.8713,50.06602,63.31246
294135.7,234.8533,397.6897,49.58244,63.30197
294154.8,231.5155,397.1982,49.17715,63.27352
294169.8,227.7637,396.2675,48.71354,63.21949
294185.2,224.3118,395.5705,48.27929,63.17889
294201.7,221.1103,394.3299,47.86984,63.10635
294219.4,218.4739,392.6131,47.52773,63.00537
294235,215.7044,390.6746,47.16348,62.8905
294253,213.2616,388.7967,46.83799,62.77837
294270.3,211.1379,386.6899,46.55178,62.65153
294287,209.0556,384.4831,46.2682,62.5175
294303.9,207.0117,381.4209,45.98695,62.3295
294321.4,205.2609,378.4665,45.74374,62.14586
294337.5,203.7005,375.1872,45.52518,61.93938
294353.6,202.4194,371.6491,45.34446,61.71344
294371.3,201.0928,368.3994,45.15611,61.50295
294386.3,199.6047,364.0499,44.94333,61.21669
294402.8,198.2035,359.5927,44.74152,60.91785
294421.3,197.0896,355.3407,44.58006,60.62745
294437.7,195.9738,350.593,44.41745,60.29688
294452.6,194.5195,345.3946,44.20412,59.9271
294471.3,193.2596,340.2382,44.01805,59.55199
294488.2,191.9224,334.9658,43.81929,59.1596
294505.9,190.5733,330.003,43.6174,58.78183
294520.8,189.5362,324.9211,43.46128,58.38629
294537.3,188.5112,320.1135,43.30618,58.00375
294555.3,187.2704,314.488,43.11736,57.5455
294571.9,186.1461,309.0726,42.94526,57.09321
294587.1,185.0789,303.3695,42.78101,56.60465
294604.4,184.1428,298.1271,42.6362,56.14413
294620.2,182.9875,292.5458,42.45656,55.64139
294639.1,182.0638,287.7571,42.31219,55.19952
294653.9,181.1517,281.5195,42.16898,54.60886
294675.1,180.572,277.129,42.07762,54.18256
294689.1,179.8176,272.5804,41.95833,53.73145
294703.4,179.1062,267.5192,41.84544,53.21785
294719.4,178.6104,262.6367,41.76651,52.71043
294736.3,178.3098,257.9348,41.71857,52.21036
294753.5,178.3534,253.7453,41.72553,51.7551
294769.6,178.6417,249.8272,41.7715,51.32087
294787.7,178.8193,246.5206,41.79979,50.94788
294802.5,179.1747,243.1301,41.85632,50.55912
294819.4,179.3478,239.6388,41.88382,50.15199
294834.8,179.7996,236.1016,41.95548,49.7323
294854,180.1725,233.9021,42.0145,49.46762
294869.5,180.4476,231.8025,42.05799,49.21227
294885.8,180.578,229.1817,42.07856,48.88977
294903.2,180.5172,226.7244,42.06896,48.58358
294918.4,180.5302,224.2804,42.07101,48.2753
294935.3,180.5206,221.8349,42.06951,47.96309
294953.1,180.2865,219.7873,42.03253,47.69873
294969.8,179.9437,217.7081,41.97831,47.42752
294986.2,179.6747,215.7725,41.93568,47.17249
295002.4,179.4316,214.0708,41.89712,46.94625
295019.1,179.0886,212.6594,41.84263,46.75715
295035,178.6672,211.011,41.77556,46.53459
295051.9,178.228,209.5101,41.70551,46.33035
295073,177.8836,208.3271,41.65047,46.16829
295089.8,177.663,207.5065,41.61517,46.0553
295101.8,177.5077,206.6642,41.59029,45.93885
295119.4,177.3899,205.8934,41.5714,45.83186
295135.2,177.2754,204.8907,41.55304,45.69205
295156.6,177.2212,204.235,41.54435,45.60024
295169.3,177.3509,202.8621,41.56516,45.40704
295200,177.4032,202.5932,41.57354,45.36905
295206.5,177.422,202.0564,41.57656,45.29305
295222.8,177.4331,201.2563,41.57833,45.17938
295235.3,177.4744,200.362,41.58495,45.05181
295255,177.6181,199.5512,41.60797,44.93565
295271.8,177.8501,198.7919,41.6451,44.82643
295290.9,178.067,198.1458,41.6798,44.73316
295306.8,178.5032,197.6741,41.74942,44.6649
295324.4,178.7438,197.5133,41.78776,44.64158
295337.3,179.1463,197.2905,41.85181,44.60926
295353.1,179.8346,196.793,41.96102,44.53693
295372.9,180.4907,196.2786,42.06479,44.46196
295388.7,181.3634,195.7483,42.20227,44.38446
295405.3,182.4475,195.5665,42.37224,44.35785
295421.1,183.489,195.502,42.53467,44.3484
295438.1,184.5004,195.2858,42.69159,44.31672
295454.5,185.7923,195.0717,42.8909,44.28531
295471.6,187.2379,194.9631,43.1124,44.26935
295490.3,189.1554,194.953,43.40376,44.26787
295506.7,190.8144,194.9258,43.65359,44.26387
295522.4,193.0152,195.0855,43.98182,44.28733
295539.4,195.1386,195.0924,44.29512,44.28835
295554.5,197.5293,194.9382,44.6439,44.26569
295571.9,200.1261,194.7466,45.01806,44.23753
295589.3,202.5424,194.5954,45.36187,44.21529
295608.2,205.0201,194.4428,45.71012,44.19282
295621.3,207.4499,194.3693,46.04749,44.182
295641.8,209.6485,194.285,46.34925,44.16958
295662.3,211.4827,194.3202,46.59846,44.17477
295672.8,212.8141,194.481,46.77794,44.19845
295691,214.1004,194.5141,46.9502,44.20332
295707,215.4198,194.4855,47.12577,44.19912
295723.2,216.7735,194.3585,47.30468,44.18041
295738.8,218.3486,194.268,47.51137,44.16708
295755.7,220.0438,194.5286,47.73199,44.20546
295773.1,221.6007,194.6312,47.93299,44.22056
295787.5,223.8768,194.5126,48.22404,44.2031
295807.2,227.7042,193.8631,48.70611,44.10733
295828.3,229.5168,193.6626,48.93124,44.0777
295837.7,233.5311,193.3654,49.42269,44.03373
295854.9,237.8871,193.2875,49.94506,44.02219
295872.3,242.3483,193.2253,50.46856,44.01297
295890.1,247.5734,193.062,51.0673,43.98877
295907.6,252.8133,192.7255,51.65257,43.93882
295927,257.453,192.7507,52.15848,43.94257
295944.1,262.1149,192.6606,52.65549,43.92918
295959.8,267.296,192.4445,53.19491,43.89706
295978.3,271.877,192.0219,53.6608,43.83413
295992.8,276.562,191.7235,54.12685,43.78961
296011.8,281.1619,191.2448,54.57446,43.71805
296029.8,285.6195,190.5829,54.99905,43.61884
296043.5,289.5057,190.1006,55.36201,43.54634
296058.8,293.4207,189.6395,55.72107,43.47686
296075.2,296.9471,189.038,56.03892,43.38599
296092.6,300.5367,188.2225,56.35719,43.26235
296108.5,303.8857,187.4487,56.64939,43.14456
296125,307.056,186.3985,56.92191,42.98399
296147.1,309.804,185.4267,57.15495,42.83464
296159.1,311.9163,184.6707,57.3321,42.71794
296175,314.1806,184.1278,57.52012,42.63388
296193.1,316.386,183.8906,57.70141,42.59707
296210.9,318.2597,183.5211,57.85402,42.53966
296227.3,320.1692,182.9714,58.00823,42.45405
296243.3,321.8101,182.5063,58.13969,42.38144
296258.5,323.4913,182.0929,58.27338,42.31675
296275.5,324.928,181.848,58.38683,42.27837
296292.1,326.2716,181.4534,58.49228,42.21642
296310.2,327.1411,181.1018,58.56018,42.16113
296326.9,327.8491,180.641,58.61527,42.0885
296344.1,328.4874,180.2081,58.6648,42.02013
296358.8,329.0291,180.1201,58.70671,42.00621
296374.7,329.4468,179.9596,58.73897,41.98082
296392,329.5965,179.7349,58.75051,41.94522
296408.2,329.4597,179.5282,58.73997,41.91244
296425.8,329.2952,179.4799,58.72727,41.90479
296441.3,329.058,179.549,58.70895,41.91576
296457.5,328.9448,179.4938,58.7002,41.90699
296476.9,328.8295,179.5521,58.69128,41.91624
296490.8,328.7226,179.4608,58.68301,41.90175
296508,328.561,179.3205,58.6705,41.87948
296523.8,328.3011,179.2031,58.65036,41.86083
296540.7,327.843,179.2691,58.6148,41.87131
296557.4,327.4051,179.3658,58.58074,41.88667
296573.4,326.7969,179.592,58.53333,41.92258
296590.7,326.3005,179.5454,58.49453,41.91518
296607.4,325.7717,179.5575,58.45311,41.9171
296623.8,325.1887,179.6489,58.40734,41.9316
296640.9,324.6553,179.7208,58.36535,41.94299
296656.6,324.1128,179.9263,58.32254,41.97555
296672.9,323.3926,180.484,58.26556,42.06373
296692.8,322.8344,180.9155,58.22126,42.13178
296709.1,322.3173,181.4602,58.18012,42.21749
296723,321.7732,181.9186,58.13674,42.28944
296740.7,321.3051,182.3525,58.09933,42.35739
296756.9,320.8537,182.8303,58.06318,42.43203
296772.9,320.433,183.2361,58.02943,42.49532
296790.6,320.0626,183.5316,57.99966,42.5413
296807.8,319.8707,183.8239,57.98421,42.58673
296824.2,319.702,184.1228,57.97062,42.6331
296846.8,319.7289,184.3849,57.97279,42.67371
296860.3,319.7923,184.5087,57.9779,42.69289
296877.1,319.8691,184.6987,57.98408,42.72228
296890.8,319.8746,184.7833,57.98452,42.73535
296909.7,319.8472,184.9133,57.98232,42.75543
296923.8,319.7828,185.3302,57.97713,42.81976
296941.3,319.7277,185.6564,57.97269,42.87
296958.3,319.6383,186.1266,57.96549,42.94226
296977.3,319.5289,186.6111,57.95667,43.01655
296996,319.4048,186.893,57.94666,43.05969
297011.9,319.2403,187.2096,57.93338,43.10809
297028.3,319.1298,187.5954,57.92445,43.16693
297045.2,319.0591,188.0923,57.91874,43.24256
297061.1,319.0689,188.5856,57.91953,43.31747
297079.4,319.2009,188.9804,57.9302,43.37728
297095.4,319.4447,189.4049,57.94987,43.44145
297111,319.7364,190.0313,57.97339,43.53591
297135,320.1143,190.6018,58.00381,43.62168
297159.8,320.3865,191.0778,58.0257,43.69306
297172.3,320.6935,191.5254,58.05034,43.76002
297185.9,321.2035,192.0543,58.0912,43.83895
297196.8,321.8025,192.5922,58.13908,43.91902
297208.3,322.5553,193.3446,58.19907,44.03064
297225,323.3523,194.0746,58.26236,44.13855
297246.8,324.2344,195.0238,58.33215,44.27827
297261.3,325.0827,195.9672,58.39901,44.41648
297278.2,325.7937,196.7076,58.45485,44.5245
297291.8,326.6482,197.6465,58.52172,44.66089
297309.5,327.4901,198.6479,58.58736,44.80568
297325.4,328.4116,199.7914,58.65892,44.9701
297343.8,329.2677,200.7062,58.72515,45.10097
297358.8,330.3064,201.5081,58.80516,45.21521
297374.9,331.6943,202.1656,58.9115,45.30852
297394.5,332.6201,202.6688,58.98207,45.37975
297409.4,333.7897,203.1725,59.07082,45.45084
297425.1,334.8965,203.4517,59.15438,45.49018
297447.1,335.8044,203.3472,59.22261,45.47546
297465.8,336.4617,203.246,59.27185,45.4612
297475.9,337.0172,203.2277,59.31335,45.45862
297496.5,337.4268,203.3644,59.34388,45.47789
297513.4,337.6711,203.4669,59.36206,45.49232
297529.4,337.8572,203.5495,59.37591,45.50395
297542.8,337.8558,203.5168,59.3758,45.49934
297559.1,337.9253,203.5343,59.38097,45.50181
