Time Stamp(ms),Intersection,,Angle,
,x,y,x,y
971849.6,334.6845,248.8527,59.1384,51.21157
971867,335.3275,250.3596,59.18681,51.38036
971884.4,335.6808,252.0476,59.21334,51.56796
971900.7,336.0526,253.2045,59.24122,51.69566
971918.6,336.2435,253.8683,59.25552,51.76861
971931.7,335.9936,253.7583,59.2368,51.75654
971951.7,335.9154,253.6215,59.23094,51.74151
971965.9,335.489,252.9054,59.19894,51.66271
971983.3,335.0717,252.3947,59.16756,51.60636
972000.9,334.6997,252.1383,59.13955,51.578
972016.5,334.4452,252.3619,59.12035,51.60273
972035.7,334.2951,252.6285,59.10902,51.63218
972051,334.2366,252.637,59.10461,51.63311
972067.8,334.2401,252.7093,59.10487,51.64109
972083.3,334.2248,252.7688,59.10371,51.64766
972099.6,334.2504,252.9237,59.10564,51.66473
972116.3,334.1489,253.1064,59.09798,51.68486
972136.3,333.9529,253.3198,59.08316,51.70835
972150.2,333.7176,253.5619,59.06536,51.73496
972168.3,333.4321,253.7625,59.04374,51.75699
972183.4,333.0543,254.0732,59.01507,51.79107
972202.4,332.6884,254.2697,58.98727,51.8126
972220.4,332.4315,254.5334,58.96772,51.84145
972235.4,332.1825,254.923,58.94875,51.88401
972250.9,331.9991,255.2559,58.93477,51.92033
972267.1,331.7426,255.6461,58.91519,51.96281
972284.3,331.4827,256.1853,58.89533,52.02137
972301.3,331.1827,256.8105,58.87238,52.0891
972320.1,330.7373,257.6528,58.83825,52.18001
972337.1,330.1172,258.735,58.79061,52.29627
972353.4,329.3943,260.0055,58.73492,52.43199
972369.8,328.2009,262.9248,58.64259,52.7407
972389.8,327.558,264.7142,58.59264,52.92779
972402.8,326.4523,268.4983,58.50641,53.31818
972419.5,325.4991,272.038,58.43173,53.677
972435.3,324.5109,276.2036,58.35397,54.09156
972451.2,323.5034,280.8215,58.27434,54.54167
972469.7,322.4369,285.6579,58.18965,55.00266
972495.2,321.0618,291.0319,58.07986,55.50277
972503.2,319.8558,295.3086,57.98301,55.89188
972517.4,318.598,299.6238,57.88144,56.27674
972532.9,317.0935,304.1587,57.75919,56.67302
972551.8,315.8644,307.7539,57.6587,56.98138
972567.9,314.5943,311.9619,57.55427,57.33591
972587.8,313.5799,315.898,57.47043,57.66145
972601.8,312.5268,319.7999,57.38299,57.9785
972620.3,311.463,323.2329,57.29423,58.2529
972637,310.5148,325.8122,57.21476,58.45629
972651.8,309.6201,327.6311,57.13945,58.59833
972668.6,308.5354,329.4482,57.04773,58.73908
972685.4,307.4417,331.5076,56.95479,58.89723
972702,306.3123,333.3875,56.85835,59.04035
972718.9,304.9883,335.2932,56.74462,59.18423
972734.6,303.4842,337.5449,56.6146,59.35268
972752.4,302.0299,339.3737,56.48803,59.48827
972768.8,300.269,341.5641,56.33363,59.64925
972785.4,298.6432,343.9118,56.18996,59.8201
972801.3,296.8146,346.4571,56.02707,60.00336
972819.4,295.1352,348.8706,55.87625,60.17528
972838.4,293.8781,350.5022,55.76258,60.29049
972854.4,292.4785,352.2689,55.63525,60.41434
972869.4,291.1685,354.1029,55.51532,60.54191
972889.3,289.8502,356.1325,55.39387,60.68192
972906.4,288.416,358.2248,55.2609,60.825
972922.7,287.0599,359.9382,55.13435,60.94122
972939.7,286.0378,361.1929,55.03843,61.02579
972953.8,284.7807,362.7232,54.91983,61.12833
972973.8,283.6486,363.8674,54.81242,61.20457
972993.4,282.9021,364.4895,54.74128,61.24586
973011.3,282.1961,364.9805,54.67377,61.27839
973022.4,281.5417,365.738,54.61099,61.32841
973038.8,281.2246,366.3719,54.5805,61.37017
973055.1,281.068,366.8997,54.56542,61.40484
973071.8,280.793,367.5312,54.53893,61.44622
973089.9,280.4361,368.3821,54.50449,61.50182
973107.5,279.8242,369.1852,54.4453,61.55411
973122.6,279.24,369.5492,54.38864,61.57775
973139.9,278.8179,369.478,54.3476,61.57313
973156.1,278.3928,369.0782,54.30618,61.54716
973173.2,277.9745,368.9982,54.26535,61.54195
973190.6,277.5182,369.144,54.22071,61.55143
973206.9,276.9635,369.3947,54.16632,61.56772
973223.8,276.5017,369.2635,54.12093,61.5592
973240.6,276.0354,369.45,54.07499,61.57131
973256.5,275.6471,369.9885,54.03666,61.60623
973273.7,275.2718,370.7312,53.99955,61.65427
973291.5,274.8925,371.1848,53.96197,61.68354
973306.8,274.6454,371.0844,53.93745,61.67707
973322.5,274.5241,370.2831,53.92541,61.62531
973339,274.6433,369.5352,53.93724,61.57684
973356.3,274.9729,368.3518,53.96994,61.49984
973373.9,275.783,366.7466,54.05008,61.39479
973390.3,276.6154,365.5133,54.13211,61.31359
973406.1,277.6074,364.6187,54.22944,61.25443
973421.8,279.4329,363.6254,54.40736,61.18848
973439.9,281.3826,362.4666,54.5957,61.11118
973454.9,284.51,360.5963,54.8942,60.98563
973472.8,287.8839,358.4349,55.21135,60.8393
973489.9,291.9455,356.0999,55.58654,60.67968
973505.7,297.6406,353.986,56.10082,60.53381
973522.7,303.6355,352.7954,56.62772,60.45107
973538.8,310.6098,352.5428,57.22273,60.43345
973555.1,319.9463,353.0241,57.99029,60.46699
973574.6,329.8391,353.4805,58.76921,60.49873
973592.6,338.6833,353.6183,59.4372,60.5083
973608.1,347.7252,353.683,60.09391,60.51279
973622.9,357.2233,353.9689,60.75668,60.53262
973641.9,367.5478,355.1957,61.44732,60.61745
973659.3,376.4066,356.7508,62.01649,60.72434
973672.9,389.0059,359.584,62.7909,60.91726
973694.4,396.2073,361.0441,63.21598,61.01579
973707.3,405.9363,363.7113,63.77108,61.19419
973724.1,415.4133,366.1153,64.29159,61.35328
973740.6,424.3287,368.4355,64.76397,61.5053
973757.1,433.3356,370.436,65.22498,61.6352
973773.3,443.1442,372.329,65.70937,61.75712
973792,451.5052,373.9546,66.10844,61.86105
973809.2,459.1783,375.4571,66.46395,61.95648
973825.4,467.1843,377.0837,66.8244,62.05914
973839.8,474.3586,378.2748,67.13864,62.13387
973856,483.2012,379.4803,67.51503,62.20913
973874.3,490.8926,380.4991,67.83298,62.27244
973890.9,497.883,381.6076,68.11463,62.34103
973906.9,504.3449,382.9337,68.369,62.42267
973925.1,509.762,383.7018,68.57793,62.46976
973942.4,514.1195,383.8276,68.74324,62.47746
973957.4,517.5746,383.3535,68.87259,62.44842
973974,519.5203,381.9325,68.94476,62.36107
973990.8,521.3907,380.8654,69.01371,62.29514
974007.8,522.8312,379.5524,69.06651,62.21362
974024.6,523.8307,377.5437,69.103,62.08804
974040.5,525.0787,375.6654,69.1484,61.96967
974057.6,525.6064,374.0823,69.16753,61.86918
974073.9,525.2997,372.7535,69.15642,61.78432
974092.5,524.8598,371.6771,69.14045,61.71524
974107.5,523.7296,370.1648,69.09932,61.61765
974127.1,522.821,368.7513,69.06615,61.52588
974139.8,521.921,367.5097,69.03318,61.44482
974155.8,520.9673,366.7802,68.99814,61.397
974172.9,520.1782,366.45,68.96906,61.3753
974189.4,519.2704,366.3297,68.93552,61.36739
974206.3,518.6218,365.8472,68.91149,61.33562
974226.9,517.8653,365.1553,68.8834,61.28994
974241.4,517.1647,364.5047,68.85732,61.24688
974258.7,516.4453,363.8534,68.83047,61.20364
974278.6,515.6072,363.1579,68.79912,61.15734
974292.6,514.5556,362.3364,68.75964,61.10248
974310.4,513.5397,361.2505,68.72138,61.02966
974326.9,512.8932,360.3382,68.69697,60.96823
974341.5,512.3439,359.2975,68.67618,60.89786
974357.8,511.7376,358.1472,68.65318,60.81972
974376.1,511.0885,356.841,68.62852,60.73051
974392.7,510.4239,355.5588,68.6032,60.64247
974409.7,509.9044,354.0651,68.58338,60.53929
974428.1,509.6089,352.8038,68.57208,60.45165
974443.8,509.2924,351.5631,68.55997,60.36497
974460.3,508.8469,350.1663,68.54292,60.26684
974474.2,508.1534,348.9126,68.5163,60.17826
974491.3,507.3597,347.776,68.48576,60.09753
974510.1,506.287,346.6418,68.44435,60.01659
974524.5,505.161,345.3556,68.40073,59.9243
974541.5,503.8767,343.9507,68.35076,59.82291
974561.4,502.7457,342.7529,68.30657,59.73598
974578.1,501.4199,341.5257,68.25456,59.64644
974594.4,499.9216,340.4,68.1955,59.56389
974612.6,498.5389,339.2434,68.14071,59.47865
974627.9,496.605,337.6385,68.06365,59.35965
974643.9,494.6266,336.1305,67.98428,59.24706
974662.4,492.6169,334.681,67.90309,59.13814
974678.7,490.1447,332.9585,67.80244,59.00779
974695.4,487.7568,331.3894,67.70439,58.8882
974711.9,485.2048,329.8035,67.59869,58.76646
974728.8,482.2739,327.9173,67.47611,58.62057
974746.1,479.6951,326.2422,67.36721,58.48997
974761.4,476.8076,324.5711,67.24407,58.35872
974778.3,474.0369,323.1395,67.12473,58.24549
974795.6,470.9881,321.7083,66.99202,58.13156
974812.6,468.1433,320.3381,66.86687,58.0218
974831.3,465.3465,319.3322,66.74258,57.9408
974847.6,462.1356,318.1523,66.59832,57.84531
974863.7,459.1123,316.8899,66.46094,57.74258
974880.9,455.4727,315.1402,66.29352,57.59923
974897.6,452.4401,313.67,66.1523,57.4779
974912.9,449.2665,312.0934,66.0028,57.34688
974928.9,446.2363,310.4523,65.85841,57.2095
974945.4,443.1608,308.8498,65.71018,57.07436
974960.7,440.1738,307.3393,65.56457,56.94607
974976.9,437.2745,305.907,65.42165,56.82361
974993.5,434.1185,304.4752,65.26431,56.70037
975010.3,431.0023,302.8777,65.10706,56.56192
975027.6,427.2704,301.0457,64.91629,56.40189
975045.7,423.54,299.47,64.72283,56.26315
975059.2,418.843,297.9922,64.47525,56.13213
975075.8,414.1842,296.5496,64.22517,56.00335
975093.6,409.3093,295.136,63.95856,55.87632
975110.5,403.0071,293.566,63.60621,55.73426
975130.1,397.5871,292.3091,63.29603,55.61979
975143,391.7463,290.9234,62.95412,55.49279
975159.6,385.373,289.7517,62.57169,55.38477
975176.4,379.5215,288.6328,62.21169,55.28106
975192.6,373.0367,287.7068,61.80245,55.19482
975210.2,367.2336,286.8111,61.42673,55.11105
975226.5,361.0809,285.8378,61.01826,55.01961
975243.1,353.1295,284.8261,60.47432,54.92413
975262.9,343.0508,283.9663,59.75764,54.84262
975290.6,340.5594,283.6926,59.5756,54.81661
975297,335.93,283.3666,59.23204,54.78558
975309.9,329.368,283.0567,58.73289,54.75603
975327.7,322.4832,282.6653,58.19334,54.71866
975346.6,317.2045,282.3342,57.76823,54.687
975364.6,311.0172,282.3177,57.25691,54.68542
975381.4,305.9187,282.372,56.8246,54.69061
975393.6,300.7072,282.4436,56.37217,54.69746
975410.4,295.959,282.6889,55.95038,54.72091
975427.3,291.3602,283.2387,55.53291,54.77339
975447.6,287.1068,283.6974,55.13874,54.81707
975462.6,283.391,284.4192,54.7879,54.88559
975478.9,279.7087,284.9907,54.43411,54.93969
975495.1,276.3683,285.6471,54.1078,55.00164
975512.4,273.4864,286.2833,53.82207,55.06151
975529.8,270.9841,286.6359,53.57079,55.09462
975546,268.8067,287.1081,53.34968,55.13886
975561.8,266.6997,287.7139,53.13351,55.19549
975578.6,265.0076,288.3878,52.95831,55.25829
975593.9,263.3486,289.4165,52.78516,55.35376
975612.2,261.8797,290.2137,52.63069,55.42743
975629.1,260.7148,290.8096,52.5074,55.48233
975643.1,259.6388,291.4408,52.39291,55.54031
975661.5,258.4609,292.0602,52.26689,55.59704
975678.2,257.3766,292.631,52.15024,55.64917
975694.4,256.3315,293.1259,52.03723,55.69425
975711.3,255.3341,293.673,51.92884,55.74398
975727.8,254.3431,294.1944,51.82064,55.79125
975745,253.4283,294.5604,51.72028,55.82436
975760.8,252.5549,294.8615,51.62405,55.85157
975777.8,251.8864,294.9079,51.55012,55.85575
975794.1,251.0767,295.0652,51.46025,55.86994
975811.2,250.3551,295.1213,51.37986,55.875
975828.9,249.5307,295.2471,51.28767,55.88634
975845.3,248.6748,295.38,51.19156,55.89831
975861.4,247.625,295.4955,51.07313,55.90871
975878.8,246.602,295.6817,50.95713,55.92546
975894.2,245.3159,295.8786,50.81049,55.94316
975911.7,243.9952,296.0417,50.65892,55.95781
975928.6,242.4969,296.178,50.48579,55.97004
975944.3,240.7465,296.384,50.28191,55.98851
975961.3,238.5903,296.7338,50.02835,56.01984
975977.9,236.5534,296.8356,49.78631,56.02895
975993.7,233.592,297.216,49.43007,56.06294
976012.1,230.8002,297.7078,49.08942,56.10681
976028.9,227.3607,298.3543,48.66322,56.16432
976045.3,224.0522,299.0737,48.24633,56.22811
976061.6,220.6426,299.8863,47.80948,56.29991
976078.7,216.8194,300.6372,47.31073,56.36602
976096.3,213.1995,301.4312,46.82967,56.43567
976112.1,209.8963,302.1069,46.38305,56.49475
976128.9,206.5718,302.7671,45.92604,56.5523
976146.4,203.5041,303.3792,45.49755,56.60549
976162.8,201.169,303.8572,45.16696,56.64693
976179,199.4476,304.0598,44.92076,56.66447
976195.4,197.9876,304.2765,44.7103,56.68321
976212,196.7911,304.5386,44.53666,56.70584
976229.2,196.1983,304.6575,44.45024,56.7161
976244.8,195.864,304.8349,44.40139,56.7314
976261.4,196.3195,304.6948,44.46792,56.71933
976280.3,196.826,304.5755,44.54173,56.70903
976297.8,197.7079,304.2799,44.6698,56.6835
976317.3,198.303,304.0402,44.75589,56.66277
976334.1,198.7706,303.9557,44.82336,56.65546
976350.4,199.0779,304.0526,44.86761,56.66385
976366.9,199.3464,303.9861,44.90623,56.65808
976382.2,199.639,303.7513,44.94824,56.63775
976398.3,199.9642,303.21,44.99487,56.59081
976416,200.2124,302.4326,45.0304,56.52316
976433.7,200.4057,301.5074,45.05805,56.44234
976449.2,200.7067,300.2813,45.10105,56.33471
976466.7,200.9297,298.4647,45.13286,56.17411
976482.5,201.2784,296.4072,45.18253,55.99059
976500.8,202.6787,292.0576,45.38114,55.59679
976533.1,204.0893,288.6317,45.5798,55.28096
976551.1,205.8624,284.6108,45.82755,54.90375
976566.9,207.3061,281.1454,46.02764,54.57287
976579.4,208.3816,278.6082,46.17577,54.32717
976591.7,209.5546,275.6124,46.33642,54.03323
976602.1,210.8136,272.1927,46.50782,53.69254
976616.1,212.5963,268.0523,46.74866,53.27253
976640.8,215.3627,262.0036,47.11818,52.64375
976660.8,217.0797,258.2279,47.34499,52.24187
976674.6,218.3968,255.3407,47.51766,51.92957
976683.3,220.2934,251.468,47.76432,51.50372
976697.9,222.1681,247.6739,48.00585,51.07866
976713.7,224.2163,243.8406,48.26717,50.64112
976731.6,226.3844,240.1094,48.5409,50.20726
976749.6,228.3841,236.6285,48.79079,49.79528
976764.3,230.3661,233.1746,49.03603,49.37944
976780.9,232.3685,229.5063,49.28135,48.92995
976798.4,234.0905,226.2174,49.49041,48.51993
976813.9,235.8926,222.8843,49.70728,48.09753
976832.8,237.5869,219.7166,49.90942,47.68955
976850.9,238.866,217.2738,50.06092,47.37051
976864,240.8117,214.1373,50.28954,46.95513
976885.1,242.0247,212.3402,50.43097,46.7142
976897.4,243.6919,210.1378,50.62399,46.41595
976915.1,245.7074,207.7631,50.85523,46.09068
976932.9,247.2973,206.047,51.03604,45.8532
976948.9,249.6659,203.6705,51.30281,45.52097
976967.5,251.9564,201.6663,51.55787,45.23769
976984.8,254.0536,199.9382,51.78893,44.99115
977000,256.0396,198.3181,52.00557,44.75807
977014.6,258.6365,196.2695,52.28572,44.46064
977033.1,260.9677,194.7537,52.53422,44.23857
977050.6,263.7641,193.3531,52.82866,44.03191
977065.4,266.7723,192.013,53.14099,43.8328
977084,270.2956,190.6287,53.50112,43.62572
977100,274.1646,189.0721,53.88967,43.39116
977117.5,277.2286,187.9484,54.19233,43.22068
977130.9,281.5086,186.248,54.60781,42.9609
977150.6,285.3196,184.8105,54.97076,42.73956
977166.3,289.9559,183.1977,55.40364,42.48933
977183.8,294.5306,181.7626,55.82167,42.26498
977200.6,298.8514,180.4955,56.20842,42.06554
977214.4,303.8857,178.7959,56.6494,41.79605
977231.5,308.824,176.8795,57.07217,41.48947
977249.1,313.5323,175.1447,57.46649,41.2094
977266.3,318.6248,173.511,57.88361,40.94344
977282.3,323.4009,171.8993,58.26621,40.67894
977299.1,327.9373,170.3331,58.62213,40.41989
977315.9,332.5223,168.7752,58.97463,40.16022
977334.5,336.5344,167.1858,59.27728,39.89323
977351.2,340.1638,165.5615,59.54652,39.61821
977368.2,343.7761,163.9722,59.81027,39.34699
977384.6,346.9049,162.7706,60.0354,39.14052
977401.2,349.9012,161.7948,60.24815,38.97196
977417.8,352.4642,160.9649,60.42797,38.82796
977434.2,355.3129,160.2633,60.62553,38.70577
977451.4,357.9443,159.6635,60.8059,38.60098
977467.7,360.3533,159.2463,60.96925,38.52791
977483.6,362.5971,158.8524,61.11991,38.45879
977500.1,364.9784,158.442,61.27824,38.38662
977517.1,367.2894,158.1412,61.43039,38.33363
977532.5,370.2975,158.1798,61.62624,38.34044
977550.3,373.1482,158.2434,61.80958,38.35165
977566.3,376.6044,158.5846,62.02896,38.41171
977583.6,380.0594,158.745,62.24515,38.4399
977602.1,383.9359,158.5956,62.48408,38.41365
977618.8,387.5894,158.6713,62.70581,38.42695
977632.3,391.4845,158.8902,62.9386,38.46542
977659.8,396.5982,159.1282,63.23871,38.50719
977671.3,400.7844,159.1733,63.47982,38.51511
977683.9,405.3454,159.1286,63.73798,38.50727
977699.3,410.1319,158.6336,64.00391,38.42033
977715.7,414.698,158.339,64.25298,38.36848
977733,419.2459,158.7418,64.49667,38.43935
977751.4,423.1357,159.5637,64.7017,38.58351
977769.1,427.0346,160.0427,64.90414,38.66727
977784.7,430.5036,160.3441,65.08173,38.71986
977800.8,433.9048,160.859,65.25358,38.80955
977818.3,436.7928,161.7448,65.39777,38.96329
977832.8,440.0594,163.5219,65.55896,39.26975
977850.9,442.8746,165.2541,65.6963,39.56592
977869.5,445.1614,166.6518,65.8068,39.80306
977886.3,447.0212,168.0053,65.89597,40.03114
977901.8,448.9274,170.3758,65.98672,40.42698
977919.4,450.2358,172.675,66.04865,40.80651
977934.3,451.4025,175.8297,66.10361,41.32026
977951.1,452.2874,178.6444,66.14514,41.77193
977968.1,452.7507,181.6054,66.16683,42.2403
977985.3,453.3975,184.4172,66.19705,42.67873
978001.4,453.7373,188.5453,66.2129,43.31135
978019.4,453.7553,192.9142,66.21374,43.96684
978037.7,453.4805,195.9721,66.20092,44.4172
978055,453.595,198.1536,66.20626,44.73429
978072.1,453.8407,200.6739,66.21771,45.09637
978088.4,454.094,204.3352,66.22951,45.61429
978104.3,454.2361,208.8428,66.23612,46.23905
978121.3,454.187,213.2773,66.23383,46.8401
978138.3,454.4151,216.0252,66.24445,47.20593
978155.8,454.844,218.2978,66.26437,47.50471
978172.8,455.0287,220.6794,66.27294,47.81423
978187.9,455.0018,223.9047,66.27169,48.22759
978204.4,454.7927,227.7381,66.26199,48.71035
978222.3,454.038,231.0097,66.22691,49.11515
978238.1,453.6236,232.6972,66.2076,49.3214
978255.3,453.1393,233.4304,66.185,49.41048
978274,452.5184,234.3599,66.15596,49.52295
978289.6,451.8902,235.0763,66.12652,49.60927
978304.3,451.0925,235.9049,66.08903,49.70874
978319.9,450.3118,237.0114,66.05224,49.84094
978336.9,449.5589,238.0415,66.01665,49.96337
978355.2,448.9343,238.7225,65.98705,50.04396
978370.6,448.5154,238.7104,65.96716,50.04253
978388.4,448.3129,238.8352,65.95753,50.05727
978404.3,448.3957,239.005,65.96147,50.07732
978421.9,448.4485,239.4126,65.96399,50.12537
978434.9,448.6284,239.6127,65.97253,50.14891
978452.2,449.0954,239.5811,65.9947,50.1452
978469.8,449.665,239.672,66.02168,50.15589
978487,450.5231,239.6815,66.0622,50.15701
978503.9,451.2974,239.7964,66.09867,50.17051
978519.1,452.4401,239.7511,66.1523,50.16518
978535.3,453.497,239.8897,66.2017,50.18148
978554.4,454.4585,239.982,66.24646,50.19232
978570.5,455.6425,239.9492,66.30138,50.18846
978587.6,456.7881,239.9142,66.35428,50.18435
978604.3,457.7893,239.988,66.40034,50.19302
978620.8,458.6792,240.1504,66.44113,50.21209
978636.8,459.3313,240.2004,66.47094,50.21795
978652.9,459.821,240.0344,66.49328,50.19847
978670.1,460.0611,239.5982,66.50422,50.14721
978687.3,460.1544,239.1915,66.50847,50.09931
978705,459.942,238.9155,66.49879,50.06676
978721.1,459.2293,238.6101,66.46629,50.03069
978736.8,458.3672,238.4615,66.42684,50.01311
978752.2,456.9184,238.4971,66.36029,50.01732
978770.8,455.3028,238.2926,66.28564,49.99313
978789.4,454.0343,238.1404,66.22673,49.97509
978803.9,452.5727,238.0507,66.1585,49.96446
978820.5,451.2104,238.0217,66.09458,49.96102
978836.8,449.7239,238.0375,66.02446,49.9629
978854.1,448.3284,238.1195,65.95827,49.97262
978870.9,446.9803,238.3035,65.89401,49.99442
978887.9,445.6402,238.6038,65.82981,50.02993
978904.2,444.4544,238.6893,65.77274,50.04004
978919.6,443.3158,238.8036,65.71769,50.05354
978937,442.2336,239.0785,65.66515,50.08599
978956.4,441.2518,239.3138,65.61731,50.11373
978971.5,440.1732,239.7124,65.56454,50.16063
978987.8,439.1575,240.0512,65.51465,50.20044
979003.6,437.963,240.7119,65.45574,50.27787
979021.1,436.8909,241.4359,65.40263,50.36242
979037.8,435.7765,242.2601,65.3472,50.45832
979053.5,434.4629,243.4386,65.28156,50.59476
979071.4,433.0572,244.4708,65.21096,50.71363
979088.3,431.0343,245.8177,65.1087,50.86781
979106.9,428.7885,247.1793,64.99422,51.02266
979124.8,426.8838,248.138,64.89637,51.13108
979139.7,424.7639,249.1247,64.78661,51.24213
979154.3,422.0907,250.3193,64.64692,51.37586
979173.7,419.8029,251.0656,64.52621,51.45901
979188.4,417.5799,251.6567,64.4079,51.52466
979206.1,415.4064,252.1844,64.29122,51.58311
979221.1,413.2632,252.6374,64.17519,51.63316
979239.5,411.2301,252.8114,64.06423,51.65236
979255.1,409.4861,252.8702,63.96833,51.65884
979272.3,408.1315,252.89,63.89338,51.66102
979289.8,406.9619,253.2449,63.82835,51.70011
979305.9,405.9242,253.7311,63.7704,51.75355
979321.9,405.0605,254.2558,63.72199,51.81108
979339.6,404.2117,254.6678,63.67424,51.85615
