Time Stamp(ms),Intersection,,Angle,
,x,y,x,y
156386.2,309.8721,247.7876,57.16069,51.09151
156404.2,309.9245,247.5163,57.1651,51.06083
156419.5,309.9369,247.2426,57.16614,51.02984
156433.9,309.854,247.0185,57.15916,51.00443
156457.2,309.807,246.8979,57.1552,50.99075
156467.3,309.6835,246.8197,57.14479,50.98186
156484.2,309.5892,246.8475,57.13684,50.98503
156500.1,309.4483,246.6972,57.12495,50.96796
156517.4,309.2839,246.5186,57.11107,50.94765
156534.6,309.0856,246.3332,57.09431,50.92657
156551.1,308.8026,246.2789,57.07036,50.92038
156568.3,308.5911,246.2249,57.05245,50.91424
156584,308.3419,246.1942,57.03132,50.91074
156604.2,308.1563,245.9814,57.01557,50.88648
156618.3,307.8421,245.7366,56.98887,50.85856
156636.7,307.444,245.2368,56.95499,50.80143
156654.6,307.0826,244.8005,56.92418,50.75146
156671.3,306.7742,244.3461,56.89785,50.6993
156687.7,306.5471,243.8105,56.87843,50.63765
156700.8,306.2679,243.187,56.85453,50.56569
156718.3,306.0138,242.6158,56.83276,50.49958
156734.1,305.5585,242.1602,56.79368,50.44671
156751.9,305.1036,241.9869,56.75456,50.42658
156768.6,304.5397,241.8024,56.70594,50.40512
156789.4,303.956,241.4234,56.65548,50.36097
156803.1,303.4997,240.8941,56.61594,50.29917
156818.8,303.0231,240.3163,56.57456,50.23153
156834.3,302.5345,239.6666,56.53204,50.15526
156851.6,302.0533,238.9274,56.49007,50.06816
156869.9,301.739,238.4374,56.4626,50.01026
156886.4,301.5022,237.9762,56.44189,49.95562
156902.1,301.3539,237.6116,56.4289,49.91235
156918.9,301.2631,237.4502,56.42095,49.89317
156935.5,301.1717,237.4599,56.41293,49.89432
156952,301.1967,237.5515,56.41513,49.90522
156972.8,301.2401,237.5474,56.41893,49.90472
156985.8,301.2613,237.4596,56.42079,49.89429
157002.5,301.2452,237.2811,56.41938,49.87307
157019.9,301.2659,236.5996,56.42119,49.79183
157037.1,301.2696,235.9733,56.42152,49.71694
157053.1,301.2976,235.1489,56.42397,49.61801
157071.5,301.3261,234.3909,56.42647,49.52669
157086.7,301.345,233.5789,56.42812,49.42848
157109.6,301.4141,233.0151,56.43417,49.36006
157127,301.4874,232.5851,56.4406,49.30775
157141.9,301.6407,232.4128,56.45401,49.28676
157155.8,301.795,232.3246,56.4675,49.27601
157177.1,301.9831,232.9661,56.48394,49.35411
157190.4,302.2896,233.771,56.51069,49.45174
157204.7,302.9078,235.9622,56.56453,49.71561
157224.8,303.3263,237.5632,56.6009,49.9066
157238.7,304.1667,240.9858,56.67371,50.30989
157260.6,305.8792,247.3832,56.82122,51.04576
157286,306.644,249.6597,56.88672,51.30211
157296.9,307.4054,251.339,56.9517,51.4894
157307.3,308.6539,253.0626,57.05777,51.68003
157321.3,310.2799,254.2452,57.19501,51.80992
157340.3,311.8356,255.536,57.32537,51.95082
157356.8,313.4919,256.8159,57.46314,52.08969
157372.7,314.9518,257.9843,57.58373,52.21569
157388.6,316.5643,259.1777,57.71599,52.34366
157408.9,318.3755,260.1674,57.86341,52.44923
157424.3,319.899,261.1311,57.98649,52.55154
157439.4,321.3907,261.9612,58.10618,52.63928
157455.3,323.0384,262.7502,58.23746,52.72236
157473,324.8338,263.4304,58.37942,52.79372
157488.9,326.7304,263.8535,58.52814,52.83801
157504.9,328.9572,263.9974,58.70116,52.85305
157523.3,331.1393,264.0999,58.86906,52.86375
157540.1,333.3015,264.2491,59.03383,52.87931
157555.4,335.8977,264.4625,59.22961,52.90157
157573.7,338.0887,264.7351,59.3931,52.92997
157589.6,340.6879,265.1985,59.58504,52.97815
157605.8,343.3427,265.92,59.77884,53.05296
157622.5,346.2157,267.1043,59.98606,53.17519
157639.4,349.1828,268.7367,60.19739,53.34254
157657.2,351.8972,270.6067,60.38836,53.53263
157675.3,355.1173,273.3855,60.61205,53.812
157692.7,357.7842,276.1442,60.79498,54.08571
157707,360.5448,279.2688,60.98216,54.39143
157724.8,363.3682,282.5252,61.17136,54.70527
157740.6,366.1109,285.1136,61.35299,54.95131
157758.1,368.5334,287.1422,61.51169,55.14205
157774.4,370.97,289.1043,61.66969,55.32483
157793.3,372.9604,290.9085,61.79757,55.49142
157808.8,374.9645,293.1206,61.92526,55.69378
157824.4,376.612,295.4557,62.02944,55.90512
157840.6,378.3921,298.5746,62.14121,56.18387
157856.3,380.2898,301.7422,62.25946,56.46289
157872.5,382.3322,305.0665,62.3857,56.75136
157890.5,384.6228,308.3199,62.52602,57.02946
157907.7,387.033,311.1894,62.67226,57.27133
157923.8,389.6389,313.7175,62.82876,57.48183
157940.6,392.9681,316.0512,63.02631,57.67401
157957.1,396.5361,318.5258,63.2351,57.87559
157973.7,400.411,320.4068,63.45848,58.02732
157990.5,404.0944,322.067,63.66763,58.16018
158008.3,407.9471,323.566,63.88315,58.2793
158024.7,411.9193,325.1722,64.10194,58.40604
158040.8,415.3768,326.9166,64.28963,58.54268
158058.2,418.5901,328.8882,64.46179,58.69582
158073.9,422.0363,331.3448,64.64406,58.88479
158091.5,425.0731,334.0567,64.80267,59.09101
158108.4,428.2718,337.6129,64.96774,59.35773
158125.3,431.4427,341.3049,65.1294,59.63028
158140.7,434.8071,345.6005,65.2988,59.94191
158157.8,438.4272,350.4977,65.47866,60.29018
158175.8,442.0923,355.2966,65.65828,60.6244
158192.3,444.9344,358.7562,65.79587,60.86114
158208.1,448.3882,362.1246,65.96111,61.0883
158226.1,451.4067,364.5937,66.10381,61.25277
158239.9,454.6541,367.0689,66.25555,61.41594
158257.8,457.2794,369.2672,66.37691,61.55944
158275,459.3283,370.3982,66.4708,61.63275
158292.2,461.2119,370.845,66.55651,61.66162
158307.9,462.9911,370.9037,66.63692,61.66541
158326.3,464.146,369.7561,66.68884,61.59117
158341.6,465.3865,369.1237,66.74437,61.55011
158358.1,466.6119,368.6495,66.79897,61.51925
158372.6,467.3413,367.4772,66.83136,61.44269
158391.1,467.6946,365.912,66.84702,61.33989
158408,467.8967,362.674,66.85596,61.12505
158425.7,468.4898,359.1049,66.88219,60.8848
158442.1,469.1998,354.8777,66.91351,60.5955
158457.6,470.1344,348.8883,66.9546,60.17654
158475.3,471.0408,342.7599,66.99433,59.73649
158491.6,471.9593,334.4414,67.03445,59.12007
158509.6,472.798,327.3978,67.07098,58.58017
158523.6,473.7695,320.7728,67.11314,58.0567
158542.5,474.9155,314.048,67.1627,57.50917
158558.1,475.8064,307.8709,67.20109,56.99133
158574.8,476.6852,300.9739,67.23883,56.39559
158595.3,477.3179,294.7162,67.26593,55.83844
158608.1,477.9035,288.8967,67.29095,55.30557
158627.1,477.9705,283.0984,67.29382,54.76001
158642.6,477.9667,277.7295,67.29366,54.24139
158659.3,477.5718,271.6898,67.27679,53.64196
158675.2,477.2569,266.3568,67.26332,53.09813
158691.4,476.9596,261.3991,67.25059,52.57991
158708.4,476.523,256.1099,67.23187,52.0132
158726.1,476.043,250.9818,67.21126,51.44969
158742.4,475.415,245.8757,67.18423,50.87443
158758.6,474.548,240.8201,67.14683,50.29053
158775.9,473.7209,235.911,67.11104,49.70947
158793,472.8105,231.0962,67.07152,49.12576
158810.3,471.6742,225.7839,67.02201,48.46539
158828.2,470.5008,220.8983,66.97067,47.84249
158844.2,469.2059,215.998,66.91377,47.20234
158860.3,467.8582,211.2765,66.85426,46.57055
158877.5,466.7761,206.4562,66.80627,45.91002
158893.8,465.6682,200.5251,66.75694,45.07512
158912.1,464.8016,195.0364,66.71822,44.28012
158928.4,464.258,189.8327,66.69386,43.506
158945.4,463.8294,184.7121,66.67463,42.72434
158962.5,463.4835,180.195,66.65909,42.01805
158980.5,463.2521,175.1546,66.64867,41.211
158997.7,462.9805,170.6927,66.63644,40.47955
159015,462.8137,166.8832,66.62893,39.84217
159030.9,462.7549,163.6703,66.62627,39.29523
159048.1,462.7633,160.1252,66.62666,38.68168
159064.5,462.8307,156.8576,66.62969,38.10667
159080.3,462.7134,154.1351,66.6244,37.62056
159095.8,462.5608,151.7759,66.61752,37.19411
159112.3,462.3716,149.3094,66.60898,36.74306
159132.2,462.066,147.3632,66.59518,36.38338
159145.2,461.4444,145.7562,66.56705,36.08386
159162.4,460.6703,144.2878,66.53192,35.80815
159180,459.5658,143.607,66.48164,35.67968
159196.5,458.2015,143.3772,66.41925,35.6362
159211.8,456.6754,143.044,66.34909,35.57311
159230.4,455.5096,142.6039,66.29523,35.48961
159246.5,454.2785,142.345,66.2381,35.44041
159261.4,452.9399,142.0762,66.17568,35.38927
159278.3,451.5195,141.622,66.10912,35.30269
159294.3,449.7906,141.3086,66.02761,35.24286
159313.6,447.8871,141.3595,65.93727,35.25257
159329.3,445.6693,141.6562,65.83121,35.30922
159346.3,443.1622,142.2551,65.71024,35.42331
159361.3,439.908,142.9964,65.55153,35.56409
159378.9,436.7542,143.6344,65.39584,35.68486
159395,433.2567,144.2308,65.22101,35.79741
159412.4,428.7788,144.9685,64.99373,35.93619
159431.1,424.9799,145.4848,64.79783,36.03304
159446.8,420.5803,146.131,64.56735,36.15392
159462.5,414.8766,147.148,64.26263,36.34341
159481.3,409.13,148.3239,63.94867,36.56134
159497.8,402.5261,149.7648,63.57896,36.82675
159514.5,396.6047,150.6951,63.23908,36.99712
159531,390.5439,151.4482,62.88273,37.1345
159547.5,384.0641,152.1746,62.49192,37.26652
159565.2,378.611,152.573,62.15489,37.33875
159581.8,373.5156,153.3389,61.83305,37.47719
159598.2,368.0623,154.1206,61.48095,37.61795
159615.1,362.9714,154.9997,61.14491,37.77562
159629.3,357.3482,155.5721,60.76521,37.87794
159646.5,352.1807,155.7377,60.40818,37.90748
159662.6,347.2588,155.7181,60.06067,37.90399
159679.8,342.6957,155.5905,59.73182,37.88122
159695.7,337.8628,155.3533,59.37632,37.83886
159712.9,333.1965,155.2579,59.02587,37.82181
159730.7,328.8774,155.4531,58.69499,37.85669
159747.3,324.4171,155.7837,58.34657,37.91568
159762.9,319.6165,155.5568,57.96373,37.87521
159780.9,315.032,155.1208,57.59033,37.7973
159796.8,310.356,154.8022,57.20141,37.74026
159812.9,305.9158,154.5158,56.82436,37.68892
159829.7,301.1315,154.1884,56.40941,37.63013
159849.3,296.5226,153.9439,56.00093,37.58618
159865.6,292.3939,153.3377,55.62753,37.47697
159881.4,287.9242,152.482,55.2151,37.32226
159902.5,283.9645,151.7937,54.84245,37.19735
159917.2,279.7154,150.901,54.43476,37.03474
159932.7,275.4144,149.5639,54.01366,36.78986
159951.8,271.6038,148.4606,53.63331,36.58661
159967.1,267.3158,147.4503,53.19694,36.39955
159982,262.67,146.4009,52.71393,36.2043
159999.6,258.9566,145.174,52.32,35.97477
160014.9,254.5128,143.3091,51.8392,35.62333
160034.9,250.7505,141.9255,51.42394,35.36057
160052.9,246.7868,140.6575,50.97814,35.11825
160066.5,243.136,139.2563,50.55981,34.84878
160082.9,239.6785,137.7117,50.15665,34.54969
160100.4,236.0308,135.9905,49.72382,34.21385
160117.1,232.3307,134.4255,49.27675,33.90612
160133.3,229.1066,133.0817,48.88047,33.64014
160148.8,225.6059,131.268,48.44296,33.2785
160172,222.4711,129.9012,48.04467,33.00397
160187.1,219.0742,128.6779,47.60603,32.7568
160204.9,216.3969,127.4135,47.25503,32.49989
160220.1,214.0648,125.9951,46.94546,32.20993
160235.4,212.442,124.8768,46.7279,31.98
160252.3,210.9498,123.8923,46.52628,31.77662
160269.8,209.5986,123.1102,46.34243,31.61442
160284.4,208.7699,122.4786,46.22906,31.48302
160302.2,208.3478,122.0555,46.17113,31.39478
160319.5,208.0798,121.8481,46.13428,31.35147
160334.9,208.5239,121.9653,46.1953,31.37594
160352.4,209.2578,122.2475,46.29586,31.43484
160373.5,209.9115,122.4036,46.38512,31.46739
160390,210.6917,122.6348,46.49127,31.51554
160403.5,211.5659,123.2544,46.60971,31.64436
160418.5,212.2551,123.9013,46.70272,31.77848
160436.7,212.7778,124.4768,46.77306,31.89748
160453.7,213.1745,125.1218,46.82631,32.03047
160470.1,213.5729,126.1878,46.87969,32.24942
160487.9,213.7718,127.1971,46.9063,32.45578
160506.4,213.8849,128.5013,46.92143,32.721
160519.3,213.9816,130.0216,46.93434,33.02822
160535.7,214.094,131.9897,46.94935,33.42275
160555,214.1045,133.2534,46.95076,33.67421
160569.5,214.1562,134.5849,46.95765,33.93758
160585.7,214.2318,136.1436,46.96774,34.24382
160604,214.2358,137.7117,46.96828,34.54969
160621.5,214.2326,139.4735,46.96784,34.89066
160641.1,214.2823,141.479,46.97448,35.27539
160654.7,214.1845,143.2339,46.96143,35.60907
160669.5,213.9831,145.3424,46.93454,36.00635
160689.8,213.8089,147.6604,46.91126,36.43853
160704.7,213.5733,150.1839,46.87975,36.9036
160720.5,213.1477,153.3843,46.82272,37.48537
160739.9,212.6582,156.5939,46.75699,38.05985
160753.2,211.6726,160.5932,46.62413,38.76328
160771.7,210.3125,163.6968,46.43974,39.29977
160789.7,208.2,166.7196,46.15082,39.81453
160805.9,206.3247,169.9,45.89177,40.3479
160822.1,204.3655,173.6875,45.61854,40.97228
160838.4,202.3967,178.4073,45.34126,41.73413
160853.8,200.0596,183.5715,45.00853,42.5475
160872.7,198.5515,186.8739,44.79177,43.05678
160887.2,196.297,191.3975,44.46464,43.7409
160905,194.1624,196.0946,44.1515,44.43509
160921.2,192.5523,200.9306,43.91309,45.13298
160938.2,191.5572,205.7185,43.76478,45.80751
160953.3,190.3771,210.257,43.58792,46.43218
160970.1,188.9874,213.487,43.37834,46.86819
160987.5,187.7692,216.6395,43.19341,47.28703
161004.2,186.9098,220.1503,43.06227,47.74579
161020.2,186.3799,223.9878,42.98113,48.23816
161040.6,185.9412,227.3512,42.9138,48.66203
161057.1,185.5548,230.4883,42.85436,49.05107
161072.7,185.162,233.8794,42.79383,49.46488
161088.6,184.8239,236.9637,42.74162,49.83526
161103.9,184.5371,240.5737,42.69728,50.26169
161120.7,184.2741,244.9303,42.65656,50.76635
161140.2,184.4449,249.3864,42.68301,51.27149
161154.7,184.7568,253.5457,42.73125,51.73318
161170.3,185.0396,258.7006,42.77494,52.29258
161188.4,185.3335,263.0429,42.82027,52.7531
161204.5,185.6385,267.2087,42.86724,53.18593
161221,186.1264,271.4718,42.94223,53.62001
161236.8,186.5959,275.7908,43.01424,54.05085
161254.1,187.1595,279.9213,43.10044,54.45471
161271.2,187.909,284.3774,43.21468,54.88163
161301.4,188.804,289.9094,43.35056,55.39934
161311.3,189.1973,292.5464,43.41008,55.64145
161323.9,189.6382,296.1707,43.47667,55.96938
161354.3,190.0322,301.0987,43.53605,56.40654
161364.8,190.2864,303.3651,43.57429,56.60427
161373.6,190.666,306.2386,43.63131,56.85203
161386.9,191.2017,310.1964,43.71161,57.18799
161403.9,191.7757,313.9923,43.79741,57.50456
161420.5,192.4596,317.7608,43.8993,57.81351
161437.7,193.1974,321.424,44.00883,58.10884
161453.6,194.1303,325.8496,44.14676,58.45923
161471.6,194.9601,329.8971,44.26892,58.77368
161488.1,195.9267,334.0423,44.41056,59.08992
161504.3,196.7594,337.9851,44.53203,59.38541
161521.2,197.6798,341.5832,44.66573,59.65065
161538.8,198.5077,344.3651,44.78545,59.85289
161554.4,199.3735,347.2174,44.91012,60.05771
161571.6,200.2618,349.8155,45.03748,60.2421
161587.9,201.0759,351.9434,45.15369,60.39159
161605.1,201.919,353.9576,45.27356,60.53184
161623.1,202.7151,355.8052,45.38628,60.65943
161639.4,203.3988,357.2459,45.48273,60.75822
161654.4,204.098,358.2889,45.58102,60.82936
161672.3,204.7943,359.3665,45.67856,60.90253
161690.6,205.393,360.2706,45.76217,60.96367
161707.9,205.8998,361.0125,45.83274,61.01366
161723.6,206.3448,361.8372,45.89457,61.06904
161740.4,206.6656,362.728,45.93904,61.12865
161756.9,206.9152,363.207,45.97361,61.16061
161773.2,207.1987,363.4525,46.01281,61.17697
161790.2,207.4318,363.3091,46.045,61.16742
161807.2,207.619,363.209,46.07082,61.16074
161825.8,207.8131,362.6499,46.09756,61.12344
161842.7,208.1486,362.2107,46.14375,61.09406
161861.2,208.4556,361.8037,46.18593,61.0668
161876.4,209.0318,361.2339,46.26494,61.02855
161892.8,209.6778,360.5766,46.35324,60.98431
161910.1,210.3767,359.6042,46.44847,60.91863
161927.8,211.1183,358.6654,46.54914,60.85497
161958.1,212.725,357.4161,46.76597,60.76985
161975.6,213.8926,356.6046,46.92245,60.71432
161990.8,215.3014,355.6218,47.11005,60.64681
162004.3,217.0317,354.5902,47.33868,60.57564
162019.7,219.0997,353.4359,47.60934,60.49563
162031.2,221.1556,352.3105,47.87568,60.41724
162045.6,224.2574,350.6544,48.27239,60.3012
162058.8,227.6403,348.8805,48.69814,60.17598
162076.2,231.0936,347.2845,49.12544,60.0625
162094.6,235.4856,345.6738,49.65847,59.94717
162111.3,239.8528,343.9481,50.17714,59.82272
162127.9,244.2933,342.2592,50.69323,59.70002
162142.4,248.2089,340.6896,51.13908,59.58517
162161,252.6392,338.942,51.63336,59.45636
162184.5,257.5359,336.9518,52.16742,59.30846
162205.7,261.067,335.45,52.54474,59.19601
162215.9,263.11,334.5703,52.76014,59.12979
162226,266.3965,333.1358,53.10223,59.02126
162241.7,269.4417,331.6944,53.4144,58.91151
162260.7,272.1243,330.3232,53.68567,58.80646
162276.7,274.8739,328.8742,53.96012,58.69474
162294.4,277.1106,327.6323,54.18076,58.59842
162310,279.6477,326.1299,54.4282,58.48118
162328.5,282.2899,324.8216,54.68275,58.37845
162345.2,284.8695,323.6696,54.92824,58.2875
162361,287.7641,322.5443,55.20017,58.19819
162376.5,290.327,321.622,55.43788,58.12466
162393.3,292.7038,320.9139,55.6558,58.06801
162409.8,295.0973,320.2374,55.87283,58.01371
162426.3,297.5265,319.3081,56.09065,57.93885
162443,299.6555,318.5041,56.27954,57.87383
162462.3,301.2963,317.7833,56.42385,57.81535
162475.4,302.9297,316.8622,56.56644,57.74032
162493.4,304.4178,316.0037,56.69542,57.67011
162509.3,305.9751,315.0459,56.82944,57.59147
162524.9,307.6241,314.0946,56.97033,57.51302
162542.5,309.1159,313.4312,57.09687,57.45811
162558.9,310.5125,312.9136,57.21456,57.41516
162574.8,312.1352,312.6238,57.35036,57.39106
162591.9,313.7672,312.3623,57.48594,57.36929
162608.5,316.0233,312.1563,57.67173,57.35212
162625.9,318.6479,311.5958,57.88548,57.30533
162641.7,321.7632,310.8192,58.13594,57.2403
162658.5,325.2488,309.7263,58.41206,57.1484
162675,328.3338,308.5865,58.65289,57.05207
162691.9,331.4148,307.1673,58.89014,56.93141
162708.8,334.7139,305.3008,59.14062,56.77153
162726.7,337.376,303.7338,59.3401,56.63624
162742.2,339.7474,302.2255,59.51584,56.5051
162758.5,341.8997,300.8829,59.67378,56.3876
162775.8,343.6106,299.6947,59.79827,56.283
162792.8,345.3364,298.2548,59.92292,56.15548
162810.7,346.4888,297.0222,60.00563,56.04563
162826.2,347.5706,295.8254,60.0829,55.93838
162842.7,348.1145,294.6949,60.12162,55.83651
162859.2,348.641,293.518,60.159,55.7299
162874.8,348.9968,292.3244,60.18422,55.62118
162893.5,349.2249,291.4284,60.20037,55.53917
162909,349.4252,290.3489,60.21453,55.4399
162926,349.3492,289.1342,60.20916,55.32761
162947.1,349.3205,287.9677,60.20713,55.21916
162962.8,348.9364,287.0916,60.17995,55.13732
162975.9,348.8089,285.8881,60.17091,55.02435
162993.3,348.6779,284.7185,60.16162,54.91395
163009,348.5665,283.3044,60.15372,54.77965
163027,348.5207,281.7457,60.15047,54.63058
163045,348.4189,280.21,60.14324,54.48264
163060.7,348.3002,278.4769,60.13481,54.31438
163079.1,348.0991,276.6622,60.12052,54.13671
163092.5,347.8312,274.3678,60.10146,53.90988
163109.9,347.4678,271.301,60.07557,53.60278
163126.3,347.1394,268.3629,60.05214,53.30433
163143,346.7847,265.1073,60.0268,52.96867
163160,346.4134,260.7428,60.00023,52.51037
163179.9,346.1753,257.4436,59.98317,52.15747
163193.7,345.9814,253.9163,59.96926,51.77386
163211.1,345.8012,250.6821,59.95633,51.41632
163227.5,345.6394,247.1743,59.94471,51.02209
163246.3,345.4973,244.311,59.93449,50.69526
163263.6,345.4745,241.5763,59.93285,50.37878
163279.3,345.6517,239.5113,59.94559,50.13698
163294.6,345.8603,237.1227,59.96057,49.85421
163311.3,346.1554,235.1456,59.98174,49.61761
163327,346.5406,233.1982,60.00934,49.38231
163348,347.0292,231.7492,60.04427,49.20575
163362.4,347.5019,230.2999,60.07801,49.02788
163379.4,347.9837,228.9527,60.11231,48.8614
163394.1,348.5571,227.5644,60.15305,48.68866
163411.3,349.2084,226.1543,60.1992,48.512
163431.5,349.8568,225.0408,60.24502,48.37162
163447.6,350.5428,223.6384,60.29335,48.19371
163464.8,351.1635,222.0682,60.33696,47.99303
163480.9,351.7466,220.396,60.37782,47.77759
163497.2,352.2922,218.9987,60.41597,47.59618
163512.6,352.7682,217.6836,60.44917,47.4243
163527.7,353.2307,216.3627,60.48137,47.25051
163544.6,353.7071,215.0621,60.51446,47.07828
163564.4,354.1678,213.8302,60.54641,46.91411
163581.2,354.5537,212.7751,60.57312,46.7727
163597.3,354.7933,211.9739,60.58968,46.66482
163612.5,354.9015,211.3076,60.59715,46.57478
163632.3,355.0041,210.8698,60.60423,46.51545
163646.8,355.0667,210.5996,60.60855,46.47876
163661.8,355.1481,210.5644,60.61417,46.47398
163680.8,355.2655,210.6894,60.62226,46.49096
163696.8,355.3332,211.017,60.62693,46.5354
163714.4,355.3668,211.787,60.62924,46.6396
163730.5,355.4335,212.4202,60.63384,46.72496
163746.1,355.5374,213.3858,60.641,46.85464
163762,355.7107,214.3359,60.65292,46.98162
163780.9,356.1009,215.1562,60.67975,47.09078
163801,356.7727,215.8256,60.72584,47.17952
163817,357.3909,216.2642,60.76813,47.23751
163831.6,358.1723,216.6684,60.82143,47.29084
163849.2,359.0341,217.1768,60.88,47.35776
163869.6,359.9344,217.6425,60.94096,47.41891
163887.3,361.1343,218.1256,61.02185,47.4822
