Time Stamp(ms),Intersection,,Angle,
,x,y,x,y
1606968,317.706,239.0064,57.80906,50.07749
1606984,317.4626,238.4129,57.78926,50.00737
1607002,317.2645,237.9862,57.77313,49.95681
1607018,317.1664,237.8533,57.76513,49.94105
1607034,316.9967,237.6838,57.7513,49.92093
1607052,316.8525,237.506,57.73953,49.8998
1607068,316.7429,237.4274,57.73058,49.89046
1607086,316.658,237.3827,57.72365,49.88514
1607102,316.5626,237.3308,57.71585,49.87898
1607119,316.4691,237.2278,57.70821,49.86671
1607134,316.3695,237.1155,57.70006,49.85334
1607151,316.1929,237.0761,57.68562,49.84866
1607169,316.0494,237.0081,57.67386,49.84055
1607185,315.7698,236.9258,57.65094,49.83075
1607202,315.4221,236.7767,57.6224,49.81297
1607219,315.0788,236.6329,57.59418,49.7958
1607234,314.7175,236.4331,57.56442,49.77194
1607254,314.3929,236.3961,57.53765,49.76752
1607270,313.9568,236.516,57.50163,49.78185
1607289,313.4812,236.6242,57.46225,49.79477
1607302,312.9771,236.7258,57.42043,49.80689
1607319,312.5081,236.7532,57.38144,49.81017
1607335,311.954,236.6969,57.33525,49.80344
1607352,311.4704,236.4246,57.29485,49.77092
1607369,310.9941,236.1278,57.25497,49.73543
1607385,310.5194,235.8371,57.21514,49.70063
1607402,310.0489,235.595,57.17557,49.67159
1607419,309.5303,235.5546,57.13187,49.66674
1607436,309.0528,235.4785,57.09153,49.65761
1607452,308.5089,235.4781,57.04549,49.65756
1607470,307.9411,235.4755,56.99729,49.65725
1607486,307.381,235.4689,56.94963,49.65646
1607502,306.7235,235.5682,56.89352,49.66837
1607521,306.1065,235.7417,56.84071,49.68918
1607535,305.4334,235.9209,56.78294,49.71066
1607552,304.6874,236.1793,56.71869,49.7416
1607569,303.945,236.3466,56.65453,49.7616
1607585,303.119,236.3783,56.5829,49.76539
1607602,302.304,236.382,56.51195,49.76583
1607619,301.4626,236.3882,56.43843,49.76657
1607635,300.5471,236.2587,56.35809,49.75109
1607652,299.6882,236.1133,56.28243,49.7337
1607670,298.8006,235.9083,56.20392,49.70915
1607687,297.9297,235.7052,56.12656,49.68481
1607708,296.933,235.4846,56.03766,49.65834
1607726,295.7127,235.3041,55.92825,49.63666
1607744,295.2136,235.2293,55.88332,49.62767
1607753,294.2036,235.0989,55.79208,49.612
1607771,293.1616,234.9436,55.69751,49.5933
1607790,292.0175,234.752,55.59312,49.57024
1607810,290.5809,234.5682,55.46128,49.54808
1607832,289.5889,234.4549,55.36971,49.53442
1607842,288.5492,234.2721,55.27329,49.51235
1607856,287.1328,233.9891,55.14118,49.47814
1607872,285.9375,233.6654,55.029,49.43897
1607889,284.5076,233.1962,54.89397,49.38206
1607905,283.1137,232.639,54.76147,49.31431
1607924,281.7722,232.2106,54.63313,49.2621
1607939,280.432,231.4734,54.50409,49.172
1607956,278.9825,230.7039,54.36361,49.07759
1607972,277.9093,230.2304,54.25897,49.01932
1607990,276.6917,229.4019,54.13961,48.91703
1608014,275.6838,228.6777,54.04029,48.82727
1608025,274.7345,228.1487,53.9463,48.76151
1608041,273.7515,227.6788,53.84852,48.70294
1608056,272.7805,227.2126,53.75149,48.6447
1608077,271.6475,226.6547,53.63771,48.57483
1608091,270.5199,226.1221,53.52385,48.50795
1608105,269.4286,225.7523,53.41307,48.46141
1608120,268.0656,225.3031,53.27389,48.40476
1608139,266.8874,224.8454,53.15285,48.3469
1608154,265.4649,224.2789,53.0058,48.27511
1608173,264.1353,223.7231,52.86744,48.20449
1608192,262.7105,223.0925,52.71819,48.12411
1608207,261.3295,222.4807,52.57254,48.0459
1608226,259.8198,221.8828,52.4122,47.96924
1608242,257.9695,221.2617,52.2141,47.88935
1608257,256.2408,220.8324,52.0274,47.83399
1608274,253.9876,220.4079,51.78169,47.77913
1608294,252.0699,220.1452,51.57044,47.74512
1608309,250.354,219.8621,51.37973,47.70842
1608324,248.2023,219.7658,51.13833,47.69594
1608341,246.2349,219.6505,50.91538,47.68097
1608357,244.2976,219.4903,50.69372,47.66016
1608372,241.9076,219.4473,50.41735,47.65457
1608390,239.6041,219.3228,50.1479,47.63839
1608408,237.2702,219.2376,49.87176,47.6273
1608423,234.5045,219.0277,49.5404,47.59997
1608443,231.9895,218.9019,49.23511,47.58358
1608459,229.8942,218.6919,48.97786,47.55619
1608474,227.0212,218.3442,48.62076,47.51079
1608492,224.5673,218.0153,48.31169,47.46776
1608507,222.0054,217.6319,47.98497,47.41752
1608524,219.5456,217.3289,47.66735,47.37774
1608540,216.8369,217.153,47.31304,47.35463
1608558,214.5253,217.1511,47.00686,47.35438
1608573,211.8311,217.2529,46.64554,47.36777
1608591,209.4351,217.4671,46.32011,47.39589
1608605,206.7375,217.8018,45.949,47.4398
1608622,204.1461,218.1285,45.58776,47.48258
1608641,201.2931,218.7877,45.18463,47.56869
1608658,198.6753,219.5249,44.80963,47.66465
1608674,195.8037,220.5714,44.39257,47.80028
1608692,192.8701,222.0467,43.9603,47.99027
1608711,190.1885,223.3502,43.55957,48.15699
1608725,187.401,224.9454,43.13729,48.35955
1608742,184.6863,226.7024,42.72036,48.58081
1608759,182.1962,228.2914,42.33293,48.77927
1608775,179.5973,230.4722,41.92342,49.04909
1608792,177.3294,232.8099,41.56171,49.33511
1608809,174.8457,235.9926,41.16087,49.71925
1608833,172.3295,239.7392,40.74974,50.16378
1608845,170.5735,242.3159,40.45979,50.46479
1608858,168.4757,246.5881,40.11007,50.95556
1608877,166.268,250.4839,39.73811,51.39423
1608893,164.3125,253.7702,39.40524,51.75784
1608910,162.1548,257.1663,39.03423,52.12755
1608929,159.9343,260.3069,38.64833,52.46407
1608944,158.1042,263.2606,38.32711,52.77594
1608958,156.1672,266.86,37.98399,53.15003
1608976,154.4773,270.1034,37.68201,53.48164
1608993,152.7748,273.3617,37.37527,53.80962
1609010,151.4059,275.8919,37.1268,54.06083
1609027,150.1289,278.4741,36.89352,54.31411
1609043,148.8735,281.2109,36.6628,54.57918
1609060,147.7756,283.7196,36.45988,54.81918
1609077,146.941,286.1528,36.30492,55.04925
1609092,146.1127,288.4608,36.15051,55.26508
1609111,145.5342,290.7442,36.04229,55.47631
1609128,145.1462,292.5989,35.96955,55.64624
1609145,144.7978,294.6235,35.90413,55.83006
1609160,144.5573,296.4724,35.85889,55.99644
1609177,144.5241,298.0109,35.85265,56.13379
1609191,144.549,299.7912,35.85733,56.29152
1609209,144.6013,301.4201,35.86718,56.4347
1609225,144.7773,303.1178,35.90028,56.58279
1609243,144.8683,304.6064,35.91737,56.7117
1609260,144.9677,305.9029,35.93605,56.82325
1609276,144.9644,307.5113,35.93543,56.96072
1609308,144.8509,308.3684,35.9141,57.03357
1609323,144.7526,308.7155,35.89563,57.06299
1609339,144.4323,308.6671,35.83537,57.05889
1609353,144.1523,308.4965,35.78261,57.04443
1609365,143.9149,308.4745,35.73782,57.04257
1609376,143.4993,308.3341,35.65931,57.03066
1609392,143.1007,308.0376,35.58385,57.00549
1609409,142.7941,307.5995,35.52571,56.96823
1609427,142.4451,307.1123,35.45943,56.92672
1609443,142.1522,306.6258,35.40373,56.88517
1609460,141.8172,306.1139,35.33992,56.84135
1609478,141.5182,305.7762,35.28288,56.81238
1609491,141.2762,305.3418,35.23666,56.77505
1609508,141.0992,304.9232,35.20281,56.73902
1609524,140.9266,304.6086,35.16978,56.71188
1609543,140.7533,304.431,35.13661,56.69656
1609558,140.5336,304.5226,35.09449,56.70446
1609575,140.2399,304.5414,35.03812,56.70609
1609595,140.0064,304.5013,34.99325,56.70262
1609612,139.6749,304.378,34.92947,56.69198
1609628,139.3191,304.2209,34.86089,56.6784
1609641,138.9774,303.9641,34.79493,56.65619
1609657,138.5676,303.6862,34.71568,56.63212
1609674,138.0993,303.3738,34.62494,56.60502
1609697,137.7805,303.1129,34.56306,56.58237
1609708,137.3744,302.8584,34.48409,56.56024
1609725,136.8902,302.6514,34.38973,56.54222
1609742,136.5353,302.3771,34.32044,56.51832
1609758,136.2069,302.1556,34.25622,56.499
1609777,135.8766,302.0789,34.19152,56.49231
1609793,135.7034,301.9554,34.15757,56.48152
1609812,135.5504,301.7971,34.12753,56.46769
1609825,135.3681,301.6409,34.09173,56.45403
1609845,135.1911,301.4551,34.05695,56.43777
1609862,135.0502,301.1156,34.02922,56.40802
1609878,134.8799,300.9491,33.9957,56.39341
1609891,134.7437,300.7481,33.96889,56.37577
1609909,134.6734,300.493,33.95502,56.35334
1609928,134.6525,300.3741,33.95091,56.34288
1609943,134.5977,300.2975,33.9401,56.33614
1609959,134.6608,300.3088,33.95253,56.33714
1609976,134.6443,300.2451,33.94929,56.33152
1609992,134.5991,300.269,33.94038,56.33363
1610008,134.5136,300.325,33.92352,56.33856
1610026,134.3952,300.3211,33.90016,56.33821
1610042,134.2074,300.4054,33.86307,56.34563
1610058,134.0871,300.455,33.8393,56.34999
1610076,134.0119,300.4156,33.82445,56.34653
1610092,133.9542,300.4682,33.81303,56.35116
1610110,133.9267,300.4867,33.8076,56.35279
1610127,134.0951,300.4062,33.84088,56.34571
1610144,134.2177,300.3637,33.86512,56.34196
1610160,134.3437,300.2476,33.88998,56.33175
1610176,134.3923,300.1848,33.89959,56.32622
1610194,134.4612,300.1888,33.91317,56.32657
1610210,134.6472,300.0813,33.94986,56.31709
1610227,134.8817,299.9989,33.99605,56.30983
1610247,135.0123,300.0278,34.02176,56.31238
1610259,135.1529,300.1003,34.04943,56.31877
1610275,135.2865,300.2615,34.0757,56.33297
1610297,135.2924,300.5078,34.07687,56.35464
1610311,135.2404,300.7493,34.06664,56.37587
1610331,135.2077,300.7215,34.06021,56.37342
1610345,135.097,300.7747,34.03844,56.3781
1610360,134.9074,300.703,34.00112,56.3718
1610380,134.7697,300.654,33.974,56.36749
1610393,134.4913,300.5644,33.91912,56.35962
1610411,134.3717,300.4683,33.89553,56.35117
1610431,134.2624,300.2336,33.87393,56.33051
1610447,134.213,300.0417,33.86417,56.31361
1610460,134.4027,299.7283,33.90163,56.28597
1610476,134.4436,299.4829,33.90971,56.26429
1610494,134.5619,299.3287,33.93303,56.25066
1610511,134.7548,299.2306,33.97107,56.24199
1610529,134.9469,299.1142,34.00891,56.23169
1610549,135.2054,299.0447,34.05976,56.22554
1610569,135.3767,298.9868,34.09343,56.22041
1610581,135.5945,298.802,34.13619,56.20404
1610597,135.8711,298.6567,34.19044,56.19115
1610614,136.0865,298.5699,34.23265,56.18345
1610631,136.3843,298.4925,34.29092,56.17659
1610647,136.4785,298.5367,34.30934,56.18051
1610665,136.738,298.6627,34.36002,56.19169
1610681,136.997,298.8106,34.41055,56.2048
1610699,137.4597,299.1594,34.50068,56.23569
1610714,137.8833,299.5421,34.58302,56.26953
1610731,138.386,299.9838,34.68052,56.30851
1610747,138.9797,300.5939,34.79537,56.36221
1610765,139.4545,300.9902,34.88701,56.39701
1610783,140.0514,301.6674,35.00191,56.45634
1610798,140.5907,302.4974,35.10543,56.52881
1610815,141.2652,303.5939,35.23456,56.62411
1610831,141.7581,304.5577,35.32866,56.70749
1610851,142.1711,305.3981,35.40734,56.77989
1610865,142.428,306.3863,35.45618,56.86467
1610881,142.7383,307.3,35.51512,56.94273
1610897,143.024,308.1682,35.56932,57.01658
1610912,143.2288,309.161,35.60811,57.10068
1610930,143.6094,310.1161,35.68013,57.18124
1610947,144.0971,310.8822,35.77219,57.24559
1610963,144.6829,311.5524,35.88252,57.3017
1610980,145.2764,311.9849,35.99398,57.33783
1610996,146.0779,312.2908,36.144,57.36333
1611013,147.2391,312.3618,36.36033,57.36924
1611031,148.6121,312.2688,36.61458,57.3615
1611049,150.5595,311.4949,36.97235,57.2969
1611064,152.9656,310.6783,37.40977,57.22848
1611081,156.073,309.6129,37.96724,57.13884
1611102,159.2842,308.7473,38.53455,57.06568
1611113,163.4562,307.4948,39.25847,56.95932
1611134,169.4681,305.6324,40.27596,56.80003
1611149,176.0397,303.6935,41.35418,56.63276
1611165,184.3424,301.5649,42.66714,56.44738
1611184,192.6384,299.5262,43.92588,56.26812
1611199,202.7498,297.1913,45.39118,56.06075
1611217,214.2977,294.7897,46.97654,55.84508
1611232,226.7261,292.7476,48.58378,55.65979
1611247,238.1664,290.9421,49.97818,55.49451
1611264,249.4617,289.1394,51.27993,55.32809
1611281,260.834,287.1539,52.52005,55.14315
1611299,270.1094,285.312,53.48225,54.97004
1611314,280.0161,283.5493,54.46388,54.80297
1611332,288.2388,282.2736,55.24441,54.68119
1611348,295.8678,281.6258,55.94218,54.61906
1611364,303.6366,280.9442,56.62782,54.5535
1611382,310.7049,280.5253,57.23072,54.5131
1611400,316.4921,280.6008,57.71009,54.52039
1611420,321.7025,280.7914,58.1311,54.53877
1611433,326.6733,281.1824,58.52368,54.57644
1611450,331.8246,281.6153,58.92145,54.61806
1611467,338.8158,281.6505,59.44702,54.62144
1611495,346.7568,281.1679,60.02481,54.57505
1611510,350.5662,280.9639,60.295,54.5554
1611520,354.2411,280.7824,60.55148,54.53791
1611531,360.1954,280.2513,60.9586,54.48663
1611551,365.2237,279.5055,61.29446,54.4144
1611571,374.1213,277.9067,61.87166,54.25872
1611594,377.3271,277.424,62.07444,54.21148
1611605,380.6791,276.8804,62.2836,54.15816
1611615,385.2375,276.231,62.56345,54.09427
1611632,390.0128,275.6924,62.85108,54.04114
1611651,393.757,275.4025,63.07273,54.01247
1611665,397.5506,275.2959,63.29392,54.00193
1611682,401.6439,275.1547,63.52883,53.98796
1611700,405.3417,275.2437,63.73777,53.99677
1611717,408.977,275.6123,63.94021,54.03323
1611736,412.2877,275.8963,64.12206,54.06127
1611752,415.4565,276.3473,64.29392,54.10572
1611768,418.7318,277.0765,64.46934,54.17741
1611784,422.045,278.1744,64.64452,54.28487
1611799,425.6478,279.7484,64.83248,54.43796
1611815,429.6609,281.5971,65.0388,54.61631
1611833,433.3437,283.1428,65.22538,54.76424
1611850,437.369,284.7733,65.42634,54.91913
1611873,440.6219,285.6101,65.58652,54.99816
1611893,443.9355,285.8664,65.74767,55.0223
1611913,447.2728,286.1117,65.90798,55.04538
1611928,449.5252,286.2086,66.01506,55.05449
1611939,451.0905,286.1919,66.08894,55.05293
1611949,453.8211,286.2756,66.2168,55.06079
1611969,456.3186,286.1973,66.33263,55.05343
1611984,458.3779,285.86,66.42734,55.0217
1612002,460.2946,285.3395,66.51484,54.97264
1612017,462.4364,284.985,66.61191,54.93916
1612034,464.1291,284.6409,66.68809,54.9066
1612051,465.9027,284.3329,66.7674,54.87741
1612067,467.3734,283.9032,66.83279,54.83663
1612084,468.8017,283.6845,66.89595,54.81584
1612098,470.1981,283.5243,66.9574,54.80059
1612115,471.4552,283.3888,67.01244,54.78769
1612133,472.5084,282.9995,67.05837,54.75058
1612151,473.3663,282.2333,67.09566,54.67733
1612167,474.3031,281.3583,67.13625,54.59336
1612185,474.9847,280.3537,67.16569,54.49652
1612201,475.4588,279.1069,67.18612,54.3757
1612217,476.0757,277.7852,67.21266,54.24684
1612233,476.7655,276.3418,67.24227,54.10519
1612251,477.1479,274.6906,67.25865,53.94194
1612269,477.4141,272.715,67.27004,53.74493
1612285,477.7345,270.4739,67.28374,53.51919
1612301,477.8529,268.3287,67.2888,53.30083
1612316,477.9942,265.685,67.29483,53.02862
1612335,478.2993,263.3623,67.30785,52.7866
1612351,478.578,261.0431,67.31973,52.54222
1612375,478.8372,258.2872,67.33076,52.24824
1612387,479.0502,256.204,67.33981,52.02341
1612400,479.2594,253.8636,67.34871,51.76809
1612417,479.3936,251.2029,67.35441,51.47427
1612434,479.4446,248.538,67.35658,51.17617
1612453,479.3805,245.8876,67.35385,50.87579
1612471,479.2367,243.5761,67.34774,50.61063
1612486,479.0217,240.7104,67.33861,50.27769
1612501,478.82,238.2496,67.33002,49.98803
1612517,478.5136,235.5265,67.31698,49.66337
1612533,478.0171,232.3792,67.29581,49.28267
1612552,477.5271,229.6861,67.27487,48.95216
1612569,476.7993,227.1402,67.24372,48.63565
1612584,475.9329,224.3573,67.20653,48.28507
1612600,475.1195,221.5499,67.1715,47.92645
1612617,474.2704,218.7168,67.13483,47.55944
1612637,473.2669,215.837,67.09135,47.18103
1612651,472.328,213.319,67.05052,46.8457
1612668,471.3311,210.8612,67.00703,46.51427
1612685,470.2027,208.5442,66.9576,46.1981
1612701,469.0578,206.1201,66.90725,45.86336
1612719,467.858,203.9035,66.85426,45.55371
1612735,466.7318,201.7387,66.80431,45.24797
1612756,465.6311,199.7912,66.75529,44.97007
1612768,464.326,197.846,66.69691,44.6898
1612784,463.0651,196.111,66.64026,44.43748
1612805,461.9908,194.6192,66.59178,44.21879
1612817,460.9316,193.1725,66.54379,44.00515
1612834,460.0211,191.8494,66.5024,43.8084
1612851,459.1917,190.3367,66.46456,43.58185
1612867,458.4126,188.5205,66.42892,43.30759
1612884,457.782,186.8769,66.40001,43.05723
1612901,457.2767,185.0934,66.37678,42.78323
1612917,456.7589,183.5072,66.35294,42.5375
1612933,456.2059,181.8898,66.32742,42.28492
1612950,455.5815,180.2157,66.29855,42.02133
1612967,454.959,178.6968,66.26971,41.78027
1612983,454.1312,177.459,66.23124,41.58249
1613000,453.3755,176.3874,66.19602,41.41026
1613016,452.3938,175.4924,66.15013,41.26573
1613033,451.384,174.4928,66.10275,41.10352
1613051,450.4266,173.6963,66.05766,40.97371
1613067,449.1575,173.1626,65.99763,40.88644
1613089,448.4274,172.8974,65.96298,40.84299
1613104,447.2843,172.6161,65.90853,40.79683
1613119,445.7079,172.4306,65.83306,40.76637
1613135,443.7954,172.0944,65.74091,40.71108
1613153,441.9311,171.7568,65.65043,40.65546
1613169,439.6336,171.3665,65.53806,40.59103
1613187,437.5235,170.9434,65.43399,40.52108
1613203,435.1313,170.4818,65.315,40.44457
1613222,432.2022,170.0383,65.16783,40.37091
1613238,429.4565,169.7003,65.02837,40.31465
1613249,426.1429,169.3197,64.85811,40.2512
1613267,423.1241,168.939,64.70109,40.18762
1613284,419.8193,168.4252,64.52708,40.1016
1613300,416.2354,168.0146,64.33584,40.03271
1613319,412.9991,167.7207,64.16084,39.98332
1613335,409.3451,167.5192,63.96054,39.9494
1613350,405.7423,167.2592,63.76022,39.9056
1613367,401.8289,166.9707,63.53936,39.85694
1613387,397.7298,166.5968,63.30428,39.79376
1613406,393.5777,166.4099,63.06219,39.76213
1613421,389.4749,166.4689,62.81896,39.77212
1613438,385.2998,166.4449,62.56724,39.76805
1613455,381.2134,166.326,62.31668,39.74792
1613471,376.6094,166.1954,62.02928,39.7258
1613488,372.0949,165.9671,61.74209,39.68709
1613506,367.7433,165.8029,61.4601,39.65923
1613522,363.1425,165.6996,61.15631,39.64168
1613540,359.1401,165.5026,60.88719,39.6082
1613554,354.5885,165.3457,60.57552,39.5815
1613573,349.4693,165.2035,60.21766,39.5573
1613595,345.0682,165.2777,59.90361,39.56994
1613607,341.0398,165.3666,59.61086,39.58507
1613620,336.4223,165.4278,59.26891,39.59548
1613636,331.4509,165.3787,58.8929,39.58712
1613654,326.8405,165.3715,58.53673,39.58591
1613670,322.2776,165.5599,58.17696,39.61794
1613687,317.0962,165.7371,57.75941,39.64804
1613704,312.7585,165.5493,57.40226,39.61615
1613719,308.505,165.3595,57.04515,39.58387
1613735,303.4271,165.3722,56.60965,39.58601
1613757,299.1528,165.3065,56.23511,39.57484
1613772,295.3154,165.122,55.89249,39.54343
1613787,290.921,164.8239,55.49257,39.49261
1613804,287.4028,164.4447,55.16642,39.42785
1613820,283.4344,163.9192,54.79203,39.33791
1613837,280.1661,163.3493,54.47839,39.2401
1613853,277.2637,162.8813,54.19577,39.15959
1613870,274.3615,162.362,53.90925,39.07003
1613888,271.7847,161.6524,53.65152,38.9473
1613904,269.8892,161.0518,53.4599,38.84306
1613920,267.763,160.4492,53.24288,38.73819
1613938,266.3006,159.9282,53.09232,38.64727
1613955,264.8925,159.3285,52.94635,38.54232
1613974,263.9949,159.0295,52.85278,38.48988
1613989,263.2958,158.8792,52.77962,38.4635
1614004,262.529,158.5479,52.6991,38.40526
1614024,262.0793,158.3681,52.65174,38.37362
1614038,261.9726,158.2163,52.64048,38.34687
1614053,261.7992,158.0247,52.62219,38.3131
1614072,261.8738,157.9503,52.63007,38.29997
1614092,261.9685,157.9899,52.64006,38.30696
1614104,262.1424,158.0783,52.65839,38.32254
1614122,262.5549,158.0027,52.70182,38.30922
1614140,262.8933,157.8959,52.7374,38.29036
1614155,263.1924,157.761,52.76878,38.26655
1614171,263.5224,157.7119,52.80336,38.25788
1614191,263.6662,157.639,52.81842,38.24501
1614208,263.7521,157.6356,52.8274,38.2444
1614222,263.8433,157.6696,52.83694,38.2504
1614238,263.8917,157.773,52.84199,38.26867
1614256,263.9313,157.8521,52.84613,38.28263
1614271,263.9915,158.0114,52.85243,38.31074
1614289,264.053,158.1301,52.85885,38.33168
1614305,264.1871,158.1278,52.87285,38.33127
1614322,264.3217,158.1883,52.88689,38.34194
1614338,264.4764,158.3888,52.90302,38.37725
1614354,264.8782,158.6006,52.94486,38.41452
1614371,265.3337,158.8199,52.99219,38.45307
1614391,265.6594,159.0731,53.02597,38.49752
1614408,266.0709,159.3727,53.06857,38.55006
1614425,266.5466,159.8015,53.11772,38.62511
1614440,267.0424,160.1308,53.16882,38.68265
1614458,267.4617,160.309,53.21194,38.71375
1614472,267.9972,160.542,53.26689,38.75436
1614489,268.4412,160.6104,53.31234,38.76627
1614505,268.9095,160.7155,53.36017,38.78457
1614523,269.3669,160.7252,53.40679,38.78627
1614539,269.7303,160.7822,53.44375,38.79618
1614555,270.1067,160.7716,53.48197,38.79433
1614575,270.4032,160.8422,53.51203,38.80662
1614591,270.6844,160.9028,53.5405,38.81717
