Time Stamp(ms),Intersection,,Angle,
,x,y,x,y
504097.8,320.2374,236.6267,58.01371,49.79507
504113.3,320.162,236.9267,58.00765,49.83085
504131.5,320.3633,237.2212,58.02383,49.86593
504149.9,320.6696,237.3939,58.04842,49.88647
504164.3,320.9647,237.4719,58.07208,49.89575
504179.8,321.1785,237.6765,58.0892,49.92006
504196.7,321.2545,238.1501,58.09529,49.97624
504214.4,321.073,238.686,58.08075,50.03965
504230.9,320.3253,239.2797,58.02077,50.10971
504248.1,319.5803,239.5686,57.96081,50.14373
504263.3,318.8174,239.2995,57.89919,50.11204
504279.6,318.1272,238.5362,57.84327,50.02195
504296.9,317.7615,238.3248,57.81357,49.99693
504316.7,317.9192,238.7531,57.82639,50.04758
504332,318.1201,239.3967,57.8427,50.12349
504348.1,318.4225,240.0532,57.86722,50.20067
504366.1,318.6326,240.7533,57.88424,50.28271
504383.8,318.8672,241.4547,57.90322,50.36461
504399.2,319.0701,241.9739,57.91963,50.42507
504415.7,319.1671,242.3344,57.92746,50.46694
504433.4,319.2587,242.5816,57.93486,50.49561
504450.8,319.3083,242.6618,57.93887,50.50492
504466.4,319.2885,242.7678,57.93727,50.5172
504482.4,319.3173,242.8914,57.93959,50.53151
504499.7,319.4369,243.1141,57.94925,50.55727
504516.1,319.6599,243.4396,57.96722,50.59488
504532.8,319.9621,243.8261,57.99157,50.63946
504550.7,320.2183,244.186,58.01217,50.68089
504565.8,320.5364,244.623,58.03773,50.73109
504582.4,320.7617,245.0517,58.05581,50.78025
504600.7,320.8849,245.4868,58.06568,50.83003
504617,320.8992,245.8102,58.06683,50.86697
504632.4,320.8047,246.0237,58.05926,50.89132
504648.7,320.6879,246.1434,58.04989,50.90495
504665.1,320.4801,246.1268,58.03321,50.90305
504682.3,320.3397,246.172,58.02193,50.90821
504698,320.2027,246.2407,58.01092,50.91603
504714.9,320.0714,246.25,58.00036,50.9171
504732.4,320.0214,246.191,57.99634,50.91037
504748.7,320.1115,246.0781,58.00359,50.89751
504764,320.39,246.0804,58.02597,50.89777
504781.8,320.6653,246.2173,58.04808,50.91337
504798.4,321.174,246.5185,58.08884,50.94764
504814.3,321.6888,246.8566,58.13,50.98606
504831.9,322.2545,247.2597,58.17512,51.03178
504848.3,322.9736,247.8573,58.23232,51.09939
504864.3,323.6738,248.4345,58.28783,51.1645
504883.6,324.5913,249.1497,58.36031,51.24493
504899.9,325.4437,249.7222,58.42738,51.30912
504916.9,326.2863,250.3165,58.49343,51.37554
504930,327.1819,251.021,58.56336,51.45405
504947,328.2279,252.1209,58.64468,51.57608
504963.9,329.3999,253.7011,58.73535,51.75026
504981.1,330.4905,255.461,58.81931,51.94267
504997.8,331.5697,257.7957,58.90198,52.19539
505016.7,332.8077,261.5455,58.99633,52.59539
505030.2,334.0428,265.8784,59.08996,53.04865
505048.7,335.1657,270.7304,59.17464,53.54515
505064.5,336.2902,276.7147,59.25901,54.14187
505080,337.5146,282.6004,59.35042,54.71246
505097.4,338.8894,289.3104,59.45247,55.34393
505115.4,340.014,294.8453,59.53548,55.8501
505131.5,341.0131,300.1345,59.6089,56.32178
505150.5,341.9886,305.1476,59.68027,56.75834
505166.8,342.7481,309.4665,59.73563,57.12648
505180.8,344.2657,317.3655,59.8457,57.78135
505211.3,344.6053,319.0483,59.87023,57.91787
505217.8,345.2621,322.3108,59.91757,58.17961
505230.5,346.2249,326.0701,59.98673,58.47651
505247.4,347.326,329.336,60.06546,58.73042
505264,348.5006,331.4276,60.14904,58.89112
505285.3,349.6556,332.6892,60.23082,58.98733
505300.3,350.7122,333.8528,60.30527,59.0756
505314.6,351.7723,334.6703,60.37962,59.13733
505331.1,352.8219,335.0648,60.45291,59.16705
505351,353.9602,335.7066,60.53202,59.21527
505368.8,355.1427,336.229,60.61379,59.25444
505381.7,356.2377,336.9612,60.68915,59.30917
505399.4,357.0252,337.5194,60.74313,59.35078
505418,357.8469,338.2124,60.79926,59.40229
505434.3,358.4983,338.8986,60.84361,59.45314
505452.1,358.8274,339.6436,60.86597,59.50818
505472.2,359.1355,340.4774,60.88688,59.56958
505483.2,359.4464,341.2032,60.90795,59.62284
505500.7,359.7619,341.8782,60.9293,59.67221
505517.6,360.0018,342.7509,60.94552,59.73583
505536.5,360.1756,343.507,60.95726,59.79076
505551.7,360.2623,344.209,60.96311,59.8416
505568.1,360.4316,344.7249,60.97453,59.87886
505585.4,360.5911,344.9994,60.98529,59.89865
505602.3,360.9058,345.0878,61.00648,59.90502
505627.5,361.1546,345.0294,61.02322,59.90081
505644.7,361.3816,344.9613,61.03848,59.89591
505657.7,361.4848,345.0293,61.04541,59.90081
505669.5,361.6625,345.029,61.05733,59.90078
505688.7,361.8948,345.0391,61.07291,59.90151
505701.5,362.2122,344.9799,61.09417,59.89725
505718,362.6171,344.86,61.12125,59.8886
505733,363.0263,344.8135,61.14856,59.88525
505751.3,363.4414,344.9592,61.17623,59.89575
505766.8,364.1805,345.1409,61.22537,59.90884
505783.5,364.9384,345.3827,61.27559,59.92625
505800.5,365.85,345.5952,61.3358,59.94153
505815.9,367.2383,345.8672,61.42705,59.96107
505832.5,368.952,346.0086,61.53895,59.97121
505850.2,371.2018,346.0347,61.68464,59.97308
505867.2,374.4812,346.0459,61.89456,59.97389
505883.5,377.7401,346.298,62.10036,59.99197
505902.8,382.13,346.7469,62.37325,60.0241
505918.9,386.2484,347.0664,62.62481,60.04694
505936,391.4282,347.5522,62.93527,60.08159
505952.3,395.8333,348.0833,63.19421,60.11939
505970.1,399.9948,347.959,63.43465,60.11056
505986.3,404.5926,347.3003,63.69569,60.06363
506001.6,408.8746,347.2462,63.93455,60.05977
506015.7,412.7864,347.6568,64.14925,60.08905
506031.8,416.797,348.2672,64.36598,60.13247
506048.8,420.2334,348.9016,64.549,60.17748
506066.7,423.3857,349.2756,64.71477,60.20396
506082.3,425.9589,349.5308,64.84859,60.222
506099.4,428.1505,349.6174,64.96152,60.22812
506115.3,430.2197,349.6326,65.06728,60.22919
506133.2,431.6376,349.7292,65.13927,60.23601
506150,432.92,349.7094,65.20405,60.23461
506170.8,434.3279,349.6166,65.2748,60.22806
506182.8,434.9282,349.5146,65.30485,60.22086
506198.8,435.6896,349.3445,65.34287,60.20883
506215.5,436.2801,349.1661,65.37228,60.19621
506233,436.9592,348.9911,65.40602,60.18382
506253.8,437.3824,348.8291,65.42701,60.17234
506269.5,437.7431,348.6349,65.44486,60.15857
506284.3,437.8923,348.3631,65.45224,60.13928
506299.1,437.8994,347.8505,65.45259,60.10284
506315.5,437.8761,347.3318,65.45144,60.06588
506337.3,437.5398,346.9193,65.4348,60.03642
506353.7,437.2151,346.5844,65.41872,60.01247
506370.6,436.897,346.0314,65.40294,59.97285
506383.3,436.5991,345.3279,65.38814,59.92231
506400.9,436.2741,344.7157,65.37198,59.87819
506417.4,435.9043,344.1249,65.35357,59.83552
506432.4,435.3138,343.3929,65.32412,59.78248
506450.3,434.6657,342.6503,65.29172,59.72851
506466.9,433.7774,342.0382,65.24718,59.68389
506483.3,433.0695,341.3491,65.21158,59.63352
506500.4,432.4594,340.5276,65.18082,59.57327
506518.1,431.8233,339.6013,65.14867,59.50507
506534,431.0649,338.5536,65.11024,59.4276
506551.8,430.2423,337.4096,65.06844,59.3426
506568,429.3822,335.9223,65.02457,59.23145
506583.6,428.4101,334.1102,64.97484,59.09505
506601.3,427.4983,332.3391,64.92802,58.96068
506618,426.5119,330.2578,64.87717,58.80143
506633.7,425.5002,328.0587,64.82483,58.63155
506650.6,424.2848,324.9318,64.76167,58.38713
506668.9,422.8931,321.408,64.689,58.10756
506685.3,421.3127,317.9519,64.60599,57.82904
506700.3,419.4011,314.1796,64.50491,57.52004
506718.4,417.655,311.0828,64.41191,57.2624
506734.1,415.6104,307.8513,64.30222,56.98965
506751.8,413.8293,304.7268,64.20594,56.72208
506769.2,411.8918,301.1619,64.10044,56.41208
506786.1,409.7028,297.1933,63.98028,56.06092
506801.9,407.7583,293.6321,63.87267,55.74027
506818.3,405.9408,290.3514,63.77133,55.44013
506834.3,404.0204,286.9242,63.66346,55.12164
506852.1,402.4163,284.0196,63.57273,54.84768
506868,400.7915,281.0103,63.48023,54.55987
506884.8,399.2084,278.3463,63.38952,54.30164
506902,397.6115,276.0681,63.29744,54.07821
506918.9,395.8552,273.6854,63.19548,53.84193
506935.4,394.008,271.1159,63.08747,53.5841
506954.2,391.9682,268.5995,62.96726,53.32852
506971.1,390.0718,266.2634,62.8546,53.08847
506986.1,388.0661,263.7443,62.7345,52.82659
507003.6,385.6786,260.7982,62.59026,52.51625
507020.3,383.4031,257.7208,62.45147,52.18734
507035.8,381.2196,254.7527,62.31706,51.86543
507052.4,378.8055,251.1447,62.16705,51.46781
507069.7,376.7149,247.534,62.03592,51.06284
507088.1,374.9025,243.7289,61.92133,50.62825
507102.8,373.4093,240.4011,61.82626,50.24147
507119.6,372.1873,237.2968,61.74802,49.87493
507137,371.1095,234.13,61.67869,49.49517
507153,370.3055,231.4647,61.62676,49.17093
507169.9,369.7105,228.6521,61.58821,48.82409
507187.1,369.2105,226.244,61.55575,48.52328
507203.7,368.8741,224.0955,61.53387,48.25183
507220.2,368.6859,222.0881,61.52163,47.99559
507236.5,368.5191,220.2345,61.51075,47.75669
507252,368.3648,218.4076,61.50069,47.51907
507271.8,368.4495,216.9905,61.50622,47.33326
507289.9,368.5602,215.5652,61.51344,47.14503
507305.9,368.6649,214.6625,61.52025,47.02515
507325.7,368.8898,213.822,61.5349,46.91302
507339.6,369.1639,213.3503,61.55272,46.84988
507355.1,369.6079,213.0115,61.58156,46.80445
507372.9,370.0309,212.4299,61.60898,46.72626
507392.9,370.3703,211.7758,61.63095,46.63808
507407.5,370.784,210.921,61.65768,46.52238
507422.3,371.2125,210.0071,61.68533,46.39815
507439,371.7575,208.7258,61.72041,46.22301
507455.2,372.2734,207.1703,61.75355,46.00888
507471.3,372.8345,205.1527,61.78951,45.72865
507489.5,373.2585,203.0346,61.81663,45.43139
507506.9,373.5182,200.756,61.83321,45.10808
507526.3,373.4505,198.7362,61.82889,44.8184
507548.3,372.7555,195.852,61.78445,44.39964
507563.3,371.9041,193.5335,61.72984,44.05861
507573.1,370.7654,191.1199,61.65648,43.69937
507589.1,369.3213,188.3904,61.56295,43.28784
507605.3,367.0427,184.4504,61.41422,42.68386
507625.7,365.628,181.9674,61.32116,42.29708
507637.5,363.8114,178.73,61.20085,41.78556
507653.8,362.5516,175.6566,61.11687,41.29228
507671.3,362.0192,172.2565,61.08124,40.73774
507688.3,361.5509,168.83,61.04984,40.16939
507707.3,361.2492,165.2875,61.02958,39.57161
507723.7,360.8009,161.9607,60.99942,39.00068
507739.2,360.3018,159.0461,60.96578,38.49279
507755,359.3717,155.7614,60.90289,37.9117
507772,358.2415,152.9571,60.82614,37.40823
507787.8,356.8611,150.5536,60.73189,36.97127
507804.6,354.6136,148.0472,60.57726,36.51017
507822,352.046,145.8065,60.39877,36.09326
507838.7,349.8491,143.4486,60.24447,35.64973
507853.9,346.6887,141.1282,60.01994,35.20837
507876.9,343.1237,138.4221,59.76294,34.68753
507892.8,340.1342,136.325,59.54434,34.27933
507908.2,337.3432,134.3715,59.33765,33.89547
507922.7,334.3163,132.2043,59.11062,33.46556
507938,331.5146,130.1566,58.89777,33.05539
507954.1,328.2927,127.8211,58.6497,32.58286
507975.5,325.8915,126.3882,58.46251,32.29046
507990.3,323.2549,125.2307,58.25463,32.05289
508008.1,320.8003,124.5289,58.0589,31.90824
508023.8,318.5189,124.11,57.87503,31.82166
508039.9,316.3552,124.0072,57.69889,31.80041
508055.1,314.051,124.0587,57.50941,31.81106
508072.7,311.9097,124.943,57.33155,31.99364
508093.5,309.7726,126.1636,57.1523,32.24446
508108.4,307.5893,127.3725,56.96737,32.49153
508126.9,305.6489,128.526,56.80145,32.72602
508142,303.5252,129.8008,56.61816,32.98374
508158.9,301.6915,131.0886,56.45846,33.24255
508172.6,299.7147,132.7591,56.28477,33.57603
508188.2,296.6704,135.235,56.01417,34.06557
508207.8,293.4792,137.6379,55.72638,34.53533
508225.1,289.8516,140.0416,55.394,35.00002
508241.5,285.062,142.9245,54.94644,35.55045
508255.6,279.775,146.432,54.44053,36.21009
508274.9,274.8636,149.9549,53.9591,36.86163
508291.1,269.8112,153.6508,53.45197,37.53341
508308.8,263.8077,157.907,52.83321,38.29232
508325.3,258.51,161.1833,52.27215,38.86591
508340.8,253.4797,163.7744,51.72593,39.31308
508356.9,248.4599,166.2077,51.16737,39.72789
508373.8,244.5679,168.5347,50.72477,40.11996
508390,240.7894,171.1704,50.28693,40.55863
508406.5,237.5009,173.7343,49.89919,40.97992
508423.1,234.1928,176.2425,49.50277,41.3869
508439.7,231.4663,178.5002,49.17112,41.74895
508456.6,229.1372,180.806,48.88427,42.11453
508475.1,227.1796,183.3066,48.64057,42.50629
508491.7,225.5428,185.3587,48.43501,42.82415
508506.2,224.1286,187.5943,48.25603,43.16676
508526.3,222.6107,189.649,48.06255,43.4783
508542.1,221.3996,191.6582,47.9071,43.77986
508556.5,220.1182,193.8468,47.74163,44.10492
508575.5,218.7607,196.2987,47.56517,44.46489
508592.4,216.9853,198.7095,47.33257,44.81454
508610.1,215.3265,200.874,47.11339,45.12492
508625.3,213.2852,203.4847,46.84116,45.49482
508641.2,211.128,206.4998,46.55044,45.91607
508660.7,209.366,209.612,46.31066,46.34426
508676.5,207.5715,213.1015,46.06427,46.81653
508692.9,205.6081,217.0794,45.79215,47.34495
508713.5,204.0843,220.4355,45.5791,47.78271
508728.5,202.5366,224.0015,45.36104,48.23989
508742.6,200.9362,227.9893,45.13379,48.74165
508759.1,199.6753,231.5142,44.95345,49.17699
508774.1,198.6097,235.5556,44.80016,49.66686
508791.4,197.7581,239.3352,44.67706,50.11625
508809,196.9343,243.252,44.55749,50.5732
508826.2,196.526,246.9981,44.49804,51.00212
508842.9,196.7126,251.0875,44.52523,51.46144
508861.1,196.8998,255.1543,44.55247,51.90925
508878.7,197.1822,258.722,44.59352,52.29488
508891.6,197.6762,262.8644,44.6652,52.73436
508911.3,197.9771,266.0231,44.70877,53.06363
508927.3,198.4431,268.937,44.77612,53.36297
508942.5,199.0695,271.8427,44.86641,53.65735
508959.5,199.614,274.845,44.94465,53.95726
508981.4,200.0953,277.5739,45.01365,54.22616
508994.5,200.5214,279.8637,45.07458,54.44913
509008.6,200.8771,282.6252,45.12536,54.71482
509029.6,200.9982,284.6913,45.14263,54.91138
509042.7,201.225,286.7639,45.17493,55.10662
509058.5,201.534,288.8419,45.21889,55.30048
509073.7,201.9837,291.421,45.28273,55.53849
509091.7,202.4841,293.7044,45.35361,55.74683
509109.3,203.0117,295.6849,45.42816,55.92575
509125.2,203.5796,297.6767,45.50818,56.10403
509142.3,204.1207,299.344,45.5842,56.25202
509159.4,204.7251,300.5557,45.6689,56.35885
509174.5,205.3802,301.9853,45.76038,56.48413
509192,206.2652,302.9486,45.88351,56.56809
509211,207.1973,303.9993,46.0126,56.65923
509228.5,208.1331,305.0518,46.14161,56.7501
509244.3,209.0495,306.1818,46.26737,56.84716
509259,209.9064,307.313,46.38442,56.94382
509276.8,210.7604,308.3943,46.5006,57.03577
509291.2,211.5017,309.8611,46.60103,57.15976
509308,212.2197,311.1353,46.69796,57.2668
509324.3,212.8727,312.3301,46.7858,57.36661
509341,213.3776,313.5629,46.85354,57.46903
509358.8,213.8569,314.639,46.91768,57.55796
509374.4,214.3907,315.6042,46.98893,57.63736
509392.5,214.8285,316.1417,47.04723,57.68142
509408.4,215.2296,316.4065,47.10052,57.70309
509430.3,215.5442,316.4453,47.14225,57.70626
509443.6,215.8495,316.2072,47.18269,57.68678
509458.2,216.1571,315.5632,47.22337,57.63399
509475.3,216.5583,314.571,47.27633,57.55235
509493.8,216.8736,313.6108,47.31787,57.473
509509.5,217.1641,312.2667,47.35609,57.36132
509526.3,217.5102,311.2609,47.40156,57.27732
509541.9,217.9878,310.1991,47.46417,57.18822
509560.2,218.4238,309.3922,47.52119,57.12021
509586.1,219.2363,308.4501,47.62712,57.0405
509596.6,220.0964,307.7989,47.73881,56.9852
509608.6,221.5232,306.7038,47.92302,56.89183
509626.3,223.4112,305.6223,48.16477,56.79916
509645.6,225.0982,304.9377,48.37887,56.74026
509660.5,226.9731,304.4661,48.61473,56.69958
509677.5,229.0205,304.1907,48.8698,56.67579
509692.7,231.6482,304.0476,49.19339,56.66341
509712.5,233.9566,303.8761,49.47422,56.64856
509729.2,236.8531,303.5262,49.82208,56.61825
509744.1,239.564,303.0758,50.14318,56.57915
509759,242.3303,302.595,50.46647,56.53731
509774,246.0465,302.1181,50.89391,56.49573
509796.5,248.837,301.8255,51.20981,56.47017
509810.2,252.3548,301.5733,51.60195,56.44812
509827.2,255.8096,301.2959,51.98059,56.42382
509845.5,258.9012,301.1181,52.31408,56.40823
509860.5,262.4263,300.7925,52.6883,56.37966
509877.5,265.8457,300.5166,53.04527,56.35542
509894.6,269.2877,300.2917,53.39872,56.33563
509911.3,272.6524,300.0087,53.73866,56.3107
509926.9,275.8368,299.8652,54.05539,56.29804
509942.4,279.1364,299.9964,54.37857,56.30962
509958.9,282.467,300.1172,54.6997,56.32026
509976.3,285.6506,300.1293,55.00198,56.32132
509992.8,288.9174,300.2025,55.3075,56.32777
510010.1,291.9727,300.2314,55.58903,56.33032
510027.8,295.777,300.2317,55.93403,56.33035
510049,298.7297,300.3514,56.19763,56.34089
510063,301.5003,300.4828,56.44172,56.35244
510077.4,304.5836,300.7148,56.70973,56.37283
510093.3,307.6438,301.4158,56.972,56.43433
510112.2,310.3744,301.7736,57.20295,56.46563
510128.4,313.3742,302.0258,57.45339,56.48767
510144.5,316.2748,302.0974,57.69231,56.49392
510161.9,320.0537,302.0272,57.99894,56.48779
510182.2,322.1569,301.9104,58.16735,56.47759
510195,324.8081,301.7684,58.37739,56.46518
510210.1,327.9194,301.894,58.62074,56.47616
510228.3,330.9664,301.9103,58.85581,56.47758
510246,334.1376,301.6362,59.09713,56.45361
510262.3,337.336,301.1864,59.33712,56.41422
510278.9,340.5789,300.6935,59.57703,56.37096
510296.3,343.8522,300.0857,59.81578,56.31749
510313.9,346.1946,299.7479,59.98456,56.28769
510330.5,348.5062,299.628,60.14944,56.27711
510345.5,350.3416,299.565,60.27919,56.27155
510361.5,352.2956,299.2339,60.4162,56.24228
510381.4,353.8164,298.7993,60.52205,56.2038
510399.8,354.9516,298.2837,60.60061,56.15805
510413.9,356.2571,297.7079,60.69048,56.10681
510429.8,357.1302,297.2408,60.75031,56.06516
510445.8,357.8803,296.8994,60.80153,56.03466
510462.2,358.6104,296.4565,60.85123,55.99501
510478.8,358.9539,295.9769,60.87456,55.95199
510495,359.2994,295.5023,60.89799,55.90932
510512.4,359.5105,294.9862,60.91228,55.86282
510531,359.5128,294.4819,60.91244,55.81726
510547.9,359.5999,294.1579,60.91834,55.78794
510564,359.5733,293.7581,60.91654,55.7517
510582.9,359.5373,293.4085,60.9141,55.71996
510603.1,359.5672,293.2213,60.91613,55.70293
510614.4,359.5854,293.0513,60.91736,55.68747
510627,359.6736,292.8903,60.92333,55.6728
510644.8,359.7614,292.8567,60.92926,55.66974
510661.7,360.0001,292.9949,60.9454,55.68233
510681.3,360.263,293.1823,60.96316,55.69939
510698.1,360.5439,293.2008,60.98211,55.70107
510712.8,360.7428,293.3137,60.99551,55.71134
510728.8,361.0204,293.4051,61.01419,55.71965
510745.7,361.2488,293.5465,61.02955,55.7325
510760.8,361.4574,293.6335,61.04356,55.74039
510782.2,361.5509,293.623,61.04984,55.73944
510796.1,361.5351,293.6264,61.04878,55.73975
510812.5,361.4562,293.6766,61.04348,55.74431
510827.9,361.2819,293.6841,61.03177,55.74498
510844.5,361.1286,293.604,61.02147,55.73772
510861.1,360.8945,293.5742,61.00572,55.73501
510878.7,360.5816,293.4609,60.98465,55.72472
510896.9,360.3474,293.4201,60.96885,55.72101
510913.3,360.1527,293.4072,60.95571,55.71984
510929.7,359.916,293.5301,60.93972,55.731
510943.8,359.6668,293.7133,60.92287,55.74764
510961,359.5142,293.8651,60.91254,55.76141
510978.6,359.4196,294.0056,60.90614,55.77414
510994.5,359.3423,294.3063,60.9009,55.80138
511012.4,359.2452,294.4641,60.89431,55.81565
511033.3,359.2071,294.6042,60.89173,55.82832
511048.5,359.1454,294.8274,60.88755,55.84848
511062.7,359.052,294.8916,60.88122,55.85427
511078.8,358.9482,294.9701,60.87417,55.86136
511095.1,358.7871,294.9615,60.86323,55.86058
511113.9,358.6566,294.9809,60.85437,55.86234
511130.5,358.4467,294.9894,60.8401,55.86311
511146.7,358.221,295.0246,60.82475,55.86628
511162.7,357.9822,295.0113,60.80848,55.86508
511180.6,357.7693,294.994,60.79396,55.86351
511195.4,357.4817,295.0153,60.77433,55.86544
511213,357.2201,295.0174,60.75645,55.86563
511229.8,356.8686,294.959,60.7324,55.86037
511251.2,356.5875,294.9524,60.71315,55.85977
511264.6,356.2476,294.8417,60.68983,55.84977
511281,355.9459,294.6803,60.6691,55.83519
511296.7,355.6855,294.5212,60.65119,55.82082
511312.9,355.4537,294.5991,60.63523,55.82786
511331.4,355.2814,294.6187,60.62336,55.82964
511347.8,355.0985,294.5607,60.61074,55.82439
511364.7,354.8979,294.5731,60.5969,55.82551
511380.7,354.6739,294.5148,60.58142,55.82024
511398.1,354.4216,294.5119,60.56397,55.81998
511414.1,354.2387,294.419,60.55132,55.81157
511432.4,354.0578,294.3819,60.53878,55.80822
511449,353.8945,294.2974,60.52747,55.80057
511465.7,353.7579,294.2034,60.51799,55.79207
511480.8,353.6736,294.0772,60.51213,55.78064
511497.8,353.5681,293.9722,60.50481,55.77112
511513.5,353.5056,293.8035,60.50047,55.75583
511530.2,353.3829,293.7635,60.49194,55.75219
511547,353.2786,293.7383,60.4847,55.7499
511563.7,353.194,293.6841,60.47881,55.74499
511581.3,353.1291,293.6664,60.4743,55.74338
