Time Stamp(ms),Intersection,,Angle,
,x,y,x,y
336067.4,317.9162,240.1958,57.82614,50.21741
336084.3,317.9933,239.9073,57.83241,50.18355
336103.5,318.3043,239.6508,57.85764,50.15339
336120.3,318.6658,239.4016,57.88693,50.12407
336136.8,319.0067,239.1444,57.91451,50.09376
336151.1,319.5453,239.0316,57.95798,50.08045
336168.2,319.9202,238.917,57.9882,50.06694
336184.4,320.2602,238.4564,58.01554,50.01251
336206.5,320.4528,238.1688,58.03101,49.97846
336221.6,320.493,238.0929,58.03424,49.96946
336238.6,320.6283,238.0506,58.0451,49.96444
336251.4,320.8258,237.9728,58.06095,49.95523
336270.2,320.911,237.8366,58.06778,49.93907
336285.4,321.0785,237.6308,58.0812,49.91463
336302.8,321.2471,237.52,58.09469,49.90147
336318.9,321.406,237.3346,58.1074,49.87943
336334.8,321.7002,237.0831,58.13092,49.84949
336352.3,321.9529,236.9129,58.15108,49.8292
336368.6,322.1517,236.9133,58.16693,49.82926
336384.8,322.472,236.6482,58.19245,49.79763
336406.2,322.6901,236.4465,58.20979,49.77355
336420.6,322.8834,236.1486,58.22515,49.73793
336435.1,323.0981,236.001,58.2422,49.72025
336451.4,323.4206,235.8728,58.26777,49.7049
336471.3,323.6349,235.7551,58.28475,49.69079
336486.4,323.7403,235.9418,58.29309,49.71317
336505.6,323.9828,235.7934,58.31227,49.69538
336520.8,324.3218,235.6644,58.33905,49.67992
336538.7,325.0321,235.1471,58.39502,49.61779
336553.6,325.8448,234.5209,58.45885,49.54237
336570.1,326.7016,233.7708,58.52589,49.45173
336586.2,327.2959,232.9917,58.57224,49.35722
336604.7,327.2276,232.3967,58.56692,49.28479
336621.4,327.0793,231.9473,58.55536,49.22995
336638.1,327.127,231.2096,58.55908,49.13967
336653.5,327.4413,229.9799,58.58356,48.98843
336671.7,327.9713,229.0279,58.62476,48.87071
336689.4,328.4457,227.9638,58.66157,48.73847
336706.7,328.8685,226.0214,58.6943,48.49528
336724.8,329.1026,224.6306,58.7124,48.3197
336740.8,329.39,223.0087,58.73459,48.11341
336755.1,329.1215,221.423,58.71386,47.91012
336770.6,328.7445,219.7953,58.68471,47.69977
336787.1,328.1284,217.953,58.63696,47.4596
336806.6,327.3636,215.6864,58.57751,47.16109
336822.5,326.98,213.7059,58.54762,46.89749
336838.4,326.6935,212.1082,58.52525,46.68293
336853.3,326.0651,209.933,58.47611,46.38804
336871.5,325.8469,208.0573,58.45901,46.1312
336891.3,325.2509,206.3893,58.41223,45.90074
336912,324.2134,204.4547,58.33049,45.63104
336931.8,323.1988,202.6425,58.25019,45.37601
336948.2,322.5385,201.5539,58.19773,45.22172
336962.5,321.893,200.4619,58.1463,45.06609
336972.4,321.2087,199.562,58.09162,44.93719
336986.4,320.2944,198.1687,58.01829,44.73648
337006.3,319.3998,197.3084,57.94625,44.61185
337021.9,318.3955,196.7008,57.86503,44.5235
337038.4,317.4962,196.32,57.79199,44.46799
337055.6,316.6121,196.1422,57.7199,44.44204
337072.3,315.7241,196.5411,57.64719,44.50024
337088.8,314.7803,196.8382,57.5696,44.5435
337104.8,313.8831,196.7319,57.49553,44.52804
337121.3,312.869,196.4584,57.41145,44.48818
337138.5,311.6345,196.4597,57.30856,44.48838
337152.2,309.7216,197.0076,57.148,44.56814
337170,308.0622,197.7082,57.00758,44.66984
337186.8,305.8553,198.4114,56.81916,44.77154
337203,303.5617,199.2939,56.62133,44.89869
337220.5,301.3534,200.6394,56.42886,45.09144
337236.7,298.848,201.4811,56.20811,45.21137
337255.7,296.7863,202.8497,56.02454,45.4053
337270.6,294.5394,204.4845,55.82246,45.63521
337287.4,292.1569,205.9542,55.60587,45.84031
337303.9,290.0292,207.1231,55.41041,46.00235
337320.4,287.7601,207.8604,55.19979,46.10408
337338.3,286.032,208.7257,55.03788,46.223
337352.5,284.0354,209.6942,54.84919,46.35549
337370.1,282.0463,210.8718,54.65941,46.51572
337387.9,280.2258,212.136,54.48417,46.68668
337407.3,278.7278,212.7204,54.33883,46.76535
337421.9,277.1013,213.4183,54.17984,46.859
337437.7,275.7802,213.8139,54.0498,46.91194
337454.3,274.0435,214.1017,53.87761,46.95039
337470.9,272.1116,214.5022,53.68439,47.00379
337488.6,269.9363,215.0319,53.46468,47.07428
337505.4,267.4083,215.5726,53.20645,47.14602
337520.9,264.8651,215.8208,52.94349,47.17889
337541.6,262.4996,216.4851,52.69601,47.26667
337554.3,260.2042,217.901,52.45314,47.45279
337570.1,258.0425,219.2273,52.22195,47.62595
337587,255.7516,220.8287,51.97428,47.83352
337604.6,253.8358,222.2024,51.76503,48.01025
337620.5,251.6231,223.6328,51.52094,48.19299
337637.3,249.6198,225.0181,51.29764,48.36876
337654.3,247.8478,226.3499,51.09832,48.53658
337670.6,246.428,228.0901,50.93736,48.75422
337690.9,245.0264,229.7711,50.77735,48.96267
337705.4,243.4354,230.9523,50.59439,49.1081
337721.4,241.5949,232.0904,50.38095,49.24744
337740,239.8478,233.2139,50.17656,49.38421
337755.9,238.2423,234.2469,49.98716,49.5093
337770,236.5592,235.5389,49.78701,49.66486
337787.6,235.1195,237.3084,49.61448,49.8763
337804.6,233.1927,238.8714,49.38163,50.06155
337821.6,231.8018,239.8312,49.21218,50.1746
337837.5,230.4186,241.0851,49.0425,50.32149
337855.5,229.1981,242.1824,48.8918,50.44929
337872.9,228.2646,243.4845,48.77592,50.60006
337889.7,227.4827,244.5789,48.67847,50.72604
337904,226.5404,246.3145,48.56049,50.92443
337921.5,225.1237,247.7041,48.38209,51.08207
337937.7,223.3668,248.9602,48.15911,51.22366
337954.3,221.8062,250.1223,47.95939,51.35386
337971.3,220.4922,251.3325,47.79004,51.48867
337987.8,219.8051,252.881,47.70103,51.66002
338003.7,219.2498,254.5803,47.62888,51.84658
338020.4,218.1693,256.3394,47.48791,52.03809
338037.3,217.4189,258.031,47.38956,52.22071
338052.8,216.8325,259.9819,47.31245,52.42948
338073.6,216.4944,261.6027,47.26789,52.60143
338090.2,216.3155,262.8129,47.24429,52.72895
338103.3,216.4467,264.3855,47.2616,52.89355
338124,215.9062,265.0414,47.19019,52.96183
338141.2,215.8975,265.7705,47.18904,53.03748
338157,216.1087,266.5959,47.21696,53.1228
338172.1,216.3297,267.3966,47.24617,53.20525
338190.5,216.5184,267.875,47.27106,53.25436
338207.1,216.5998,268.4725,47.2818,53.31554
338223.6,216.5594,268.9133,47.27647,53.36056
338240.6,216.1871,269.4535,47.22733,53.4156
338257.2,217.2098,269.511,47.36209,53.42145
338273.6,217.976,269.6964,47.46261,53.44031
338290.7,218.4494,269.774,47.52453,53.4482
338307.7,218.5002,270.127,47.53117,53.48403
338324.2,218.571,269.8393,47.54041,53.45483
338342.5,218.7134,269.3908,47.55899,53.40922
338358.3,218.9809,269.0491,47.59387,53.37441
338374,219.3697,268.8456,47.64447,53.35365
338393.1,219.7004,268.7062,47.68744,53.33942
338410.3,220.0753,268.4883,47.73606,53.31715
338426.2,220.4195,268.1767,47.78063,53.28527
338443.4,220.8889,267.8904,47.84129,53.25594
338459.9,221.47,267.7018,47.91617,53.2366
338475,222.4224,267.5239,48.03843,53.21833
338492,223.1781,267.3117,48.13504,53.19653
338509,223.9778,267.1404,48.23688,53.1789
338527,224.5736,267.0561,48.31249,53.17023
338541.7,225.2912,266.9122,48.40326,53.15541
338556.8,226.3093,266.5699,48.53148,53.12012
338573.5,227.3708,266.7119,48.66448,53.13477
338592.9,228.6103,266.3786,48.8189,53.10038
338609.2,229.8602,266.2887,48.97367,53.09109
338626.7,231.7776,266.5389,49.20922,53.11692
338644,233.4427,266.4895,49.41198,53.11182
338662.5,235.4363,266.3037,49.65254,53.09264
338676.5,237.3825,266.6143,49.88512,53.12471
338691,239.557,267.4478,50.14236,53.21051
338709.6,241.4437,268.1949,50.36333,53.28714
338726,242.9031,268.835,50.53286,53.35257
338742.2,244.1137,270.2246,50.67257,53.49393
338759.3,244.8559,271.069,50.75782,53.57936
338775.4,246.6857,271.3989,50.96665,53.61266
338792.3,247.9767,272.2498,51.11287,53.69827
338809.8,249.0301,272.6524,51.2315,53.73866
338826.8,250.0155,273.2193,51.34193,53.79539
338842.3,250.8063,274.0244,51.43015,53.87571
338859,251.583,274.8184,51.51648,53.95462
338875.5,252.4355,275.5427,51.61086,54.02634
338891.7,252.9613,276.1327,51.66888,54.08458
338908.4,253.8889,276.6568,51.77086,54.13618
338925.5,254.651,276.8394,51.85431,54.15413
338941.8,255.5616,276.6989,51.95361,54.14032
338958.4,257.2052,276.1838,52.13175,54.08961
338973.9,257.2491,275.7627,52.13648,54.04807
338991.4,257.8327,275.0551,52.19939,53.97809
339008.1,258.5776,274.7228,52.27941,53.94514
339026.2,259.0889,274.1989,52.33416,53.89308
339041,260.1699,273.7271,52.44949,53.84609
339057.9,261.0437,273.5107,52.54228,53.8245
339073.4,262.1043,273.2028,52.65438,53.79375
339091.7,263.0375,272.6873,52.75254,53.74216
339108.7,264.0534,271.8814,52.85889,53.66125
339125.3,265.1602,270.9955,52.97418,53.57195
339141.6,266.3436,270.3953,53.09676,53.51123
339158.3,267.3512,269.6715,53.20058,53.43777
339174.8,268.2999,268.5683,53.29788,53.32533
339192.1,269.3604,267.7395,53.40612,53.24047
339208.5,270.2536,266.8867,53.49687,53.15278
339224.6,270.9112,266.1054,53.56342,53.07214
339242,271.6168,264.9361,53.63462,52.95088
339259,272.842,264.2878,53.75765,52.88336
339275.6,273.756,263.2027,53.84897,52.76986
339291,274.8082,261.5399,53.95361,52.5948
339307.6,275.8508,259.8634,54.05677,52.41685
339324.8,276.8661,258.3383,54.15676,52.25373
339341.2,278.8286,256.8752,54.34863,52.09609
339363.6,279.7564,256.0337,54.43874,52.00492
339375.6,281.055,255.2112,54.56417,51.91545
339393.2,282.6258,254.7753,54.71489,51.86789
339409,283.9424,253.5522,54.84035,51.73389
339427.6,285.2383,251.6817,54.96309,51.52743
339444.2,286.4394,249.8525,55.07618,51.3237
339461.4,287.5084,247.9602,55.17629,51.11101
339477.3,288.5083,246.7045,55.26949,50.96878
339491.7,289.7375,245.4323,55.38346,50.8238
339509.5,290.9044,244.0033,55.49105,50.65986
339526.7,291.7918,242.4491,55.57247,50.48025
339543,292.7264,240.948,55.65787,50.30548
339559.7,293.6245,239.4253,55.73957,50.12686
339575.9,294.5437,238.0155,55.82286,49.96029
339599,295.9218,236.4713,55.94704,49.7765
339615.6,296.8607,235.6353,56.03119,49.67642
339628.4,297.7745,234.594,56.11275,49.55119
339644.6,298.512,233.952,56.17831,49.47366
339662,299.5263,233.2271,56.26813,49.38581
339678.6,300.6244,232.3355,56.36489,49.27734
339693.8,301.9441,231.1916,56.48053,49.13746
339711.9,303.3712,230.0198,56.6048,48.99335
339728.9,304.7639,228.8092,56.72528,48.8436
339744.9,306.212,227.8544,56.84975,48.72484
339762,307.6112,227.1667,56.96923,48.63897
339777.6,309.1324,226.8266,57.09827,48.59638
339793.1,310.5663,226.3791,57.21908,48.54024
339811.7,311.7957,226.0881,57.32203,48.50368
339827.3,314.0296,226.1246,57.50765,48.50826
339844.1,314.8275,226.443,57.57349,48.54827
339860.8,316.4097,226.3577,57.70335,48.53756
339880.9,317.6528,226.6757,57.80473,48.57746
339895.9,319.1292,227.0233,57.9244,48.62102
339910.9,320.9949,227.5331,58.0745,48.68475
339927.6,322.8398,228.0063,58.22169,48.74377
339945.9,324.2437,228.2585,58.33288,48.77517
339962.2,326.2908,228.5796,58.49378,48.81509
339979.5,327.5156,229.0322,58.58934,48.87125
339994.1,329.0899,229.5187,58.71142,48.93147
340015.5,330.5471,230.1357,58.82365,49.00764
340030.2,332.0526,230.4873,58.93885,49.05095
340046.5,333.8201,230.6709,59.07311,49.07353
340063.8,335.3264,231.1893,59.18672,49.13718
340080.5,336.6702,231.554,59.28743,49.18186
340096.4,338.5994,231.9255,59.43099,49.2273
340113.5,340.2981,232.7203,59.5564,49.32421
340132.6,341.8272,233.4368,59.66848,49.41126
340146.3,343.4936,234.2383,59.78979,49.50827
340160.6,345.2758,235.2378,59.91856,49.62869
340179.1,346.6663,236.2757,60.01833,49.75312
340195.9,348.1407,236.894,60.12348,49.82696
340213.1,349.5657,237.2065,60.22447,49.86418
340229.8,350.631,237.4967,60.29955,49.8987
340251.4,351.6428,237.7956,60.37056,49.9342
340265.8,352.8967,238.083,60.45812,49.9683
340281.5,354.2396,238.6938,60.55138,50.04058
340296.9,355.487,239.3239,60.63752,50.11491
340312.2,357.5045,239.9967,60.77589,50.19404
340330.3,359.7564,241.0025,60.92893,50.31185
340346.9,361.4408,241.5841,61.04245,50.37969
340362.9,362.9487,242.0672,61.14339,50.43591
340380.8,364.388,243.1336,61.23914,50.55953
340396.5,365.9289,243.9489,61.341,50.6536
340411.9,367.8652,244.6011,61.46807,50.72858
340431.1,369.7272,245.4681,61.5893,50.82789
340448.9,371.2097,246.0674,61.68515,50.89629
340462.9,372.2433,246.6752,61.75161,50.96546
340481.5,373.0675,247.0585,61.80442,51.00897
340494.9,373.9049,247.2163,61.85788,51.02686
340511.1,375.0892,247.3573,61.93317,51.04284
340528.3,375.5993,247.5685,61.96549,51.06674
340545,376.3882,248.1535,62.01533,51.13283
340566.3,377.0759,248.5505,62.05865,51.17756
340581.8,377.71,249.088,62.09848,51.238
340594.9,378.4294,249.7473,62.14354,51.31192
340613.9,379.2468,250.7299,62.19458,51.42165
340629.2,380.0584,251.8023,62.24509,51.5408
340647.5,380.5602,252.7737,62.27623,51.6482
340663,380.891,253.1971,62.29673,51.69485
340679.3,381.2336,253.1658,62.31792,51.6914
340697,382.0974,253.0352,62.37123,51.67702
340719.4,382.773,253.505,62.4128,51.72871
340730.3,383.2294,254.2004,62.44082,51.80501
340746.8,383.7643,255.2997,62.47358,51.9251
340763.4,384.1952,256.2438,62.49993,52.02773
340779.5,384.5296,256.831,62.52034,52.09132
340795.7,385.3513,257.6362,62.57037,52.17822
340812.8,385.8476,258.516,62.60051,52.2728
340829.5,386.1269,259.174,62.61745,52.34326
340845.4,386.6008,259.239,62.64614,52.35021
340862.5,387.149,259.3738,62.67926,52.36462
340879.5,387.4404,259.5466,62.69683,52.38306
340894.7,387.6548,259.2656,62.70975,52.35305
340912.5,387.98,259.308,62.72932,52.35759
340929.7,388.3267,259.4261,62.75016,52.3702
340946.2,388.7251,259.393,62.77407,52.36666
340966.4,388.8535,259.2127,62.78177,52.3474
340979.8,388.8669,258.5045,62.78257,52.27156
341000.8,388.9124,257.8046,62.7853,52.19636
341015.5,389.0134,257.4824,62.79135,52.16165
341030,389.3686,256.8918,62.81261,52.09789
341048.3,389.6414,256.2895,62.82891,52.03268
341064.4,389.5748,255.9385,62.82494,51.99459
341082.4,389.374,255.3961,62.81293,51.9356
341097.1,389.2178,254.506,62.80359,51.83845
341112.9,389.1983,253.0435,62.80241,51.67794
341130.1,389.2017,251.7959,62.80262,51.54008
341147,389.5496,250.8753,62.82343,51.43784
341163.3,389.8513,250.1352,62.84145,51.3553
341180.5,389.8729,249.7359,62.84274,51.31065
341197,389.9014,249.3797,62.84444,51.27074
341214.2,389.9481,248.8959,62.84722,51.21643
341231.9,389.9637,248.6593,62.84815,51.18982
341246.6,389.8121,248.6161,62.83911,51.18496
341265.5,389.7191,248.2873,62.83355,51.14791
341285.1,389.5574,248.051,62.82389,51.12126
341296.9,389.0808,247.9136,62.79539,51.10575
341312.7,388.5401,247.6423,62.76297,51.07508
341330.4,388.1852,247.5871,62.74166,51.06884
341347.9,387.8675,247.3797,62.72256,51.04537
341363.5,387.5093,247.0516,62.70098,51.00819
341382.3,386.9869,247.0496,62.66948,51.00796
341398.7,386.4089,246.6893,62.63453,50.96706
341413.9,385.5536,245.9653,62.58266,50.88465
341430.8,384.7798,245.5677,62.53559,50.83927
341446,383.9455,245.2968,62.48466,50.8083
341462.7,383.1625,244.8853,62.43671,50.76118
341482.5,382.204,244.1241,62.3778,50.67377
341499.9,381.4232,243.5098,62.32964,50.60298
341517.5,380.4595,242.9154,62.26999,50.53428
341530.7,379.362,242.1961,62.20176,50.45089
341546.2,378.4729,241.3129,62.14626,50.34808
341563,377.6636,240.4315,62.09557,50.24504
341585,376.983,239.3954,62.0528,50.12334
341596.7,376.2538,238.6507,62.00685,50.03548
341616.6,375.3583,237.886,61.95023,49.94493
341630.3,374.4403,237.1287,61.89196,49.85492
341648,373.5874,236.5523,61.83764,49.78619
341665.1,372.7466,236.361,61.78389,49.76332
341681.9,371.9257,236.0155,61.73122,49.722
341695.8,371.1616,235.7728,61.68204,49.69291
341711.8,370.4149,235.5897,61.63383,49.67095
341730.8,369.8152,235.2676,61.59501,49.63228
341751.7,369.4043,234.9563,61.56835,49.59484
341767.1,369.071,234.7518,61.54669,49.57021
341783.6,368.8452,234.6388,61.532,49.55659
341799,368.4561,234.418,61.50665,49.52996
341815.8,368.1746,234.369,61.48829,49.52405
341833.8,367.7941,234.4273,61.46343,49.53107
341850.2,367.4392,234.527,61.44021,49.54311
341868.8,367.2566,234.507,61.42825,49.54069
341882.5,366.9395,234.3131,61.40745,49.5173
341902,366.6084,234.186,61.38571,49.50195
341916.6,366.2653,233.96,61.36316,49.47462
341933.3,365.7111,233.5228,61.32664,49.42168
341950.7,365.1271,233.0145,61.28808,49.35999
341968,364.6526,232.6461,61.25668,49.31517
341983.3,364.116,231.9669,61.22108,49.23235
342000.3,363.5652,231.358,61.18447,49.15786
342019.4,362.9903,230.8867,61.14616,49.10004
342035.6,362.4134,230.4212,61.10762,49.04282
342050.8,361.7986,230.1211,61.06646,49.00584
342067.5,361.1407,229.8525,61.02229,48.97271
342084.5,360.5845,229.322,60.98484,48.90714
342100.9,360.0159,228.7875,60.94647,48.8409
342117.6,359.4848,228.3356,60.91055,48.78476
342134.1,358.9826,227.9744,60.87651,48.7398
342149.8,358.2685,227.6936,60.82797,48.70479
342166.3,357.4099,227.2913,60.76943,48.65454
342184.8,356.5132,226.7788,60.70805,48.59039
342203.2,355.8244,226.462,60.66075,48.55066
342217.9,355.2993,226.2397,60.62459,48.52274
342233,354.8497,225.9548,60.59357,48.4869
342250.2,354.5201,226.0194,60.57079,48.49503
342265.5,354.0274,225.8777,60.53668,48.47721
342282.8,353.4158,225.5391,60.49423,48.43453
342300.1,352.8121,225.3433,60.45223,48.40984
342316,352.3167,225.6602,60.41768,48.4498
342333.1,352.1601,226.5653,60.40674,48.56362
342349.9,352.2627,227.4299,60.41391,48.67187
342366.5,352.747,228.767,60.44769,48.83835
342381.3,353.0999,229.7502,60.47226,48.96009
342398.4,353.3871,230.1127,60.49224,49.00481
342415.5,353.3077,230.0121,60.48672,48.9924
342432.2,352.8398,229.7444,60.45415,48.95937
342449.7,352.2985,229.6234,60.4164,48.94441
342466.2,351.9131,230.0891,60.38947,49.0019
342483.6,351.6505,230.5796,60.37109,49.06231
342500.3,351.4814,231.0907,60.35925,49.12509
342515.3,351.6382,231.8079,60.37024,49.21292
342532.4,352.004,232.441,60.39583,49.29019
342549.7,352.2946,232.9586,60.41613,49.35319
342566.3,352.4058,233.5281,60.4239,49.42233
342583.1,352.3953,234.0511,60.42316,49.48564
342600.8,352.3405,234.6497,60.41934,49.55791
342617.8,352.2549,235.5013,60.41336,49.66034
342632.7,351.9415,236.6703,60.39146,49.80027
342650.3,351.5889,237.9846,60.36678,49.95663
342665.7,351.1717,239.3269,60.33753,50.11527
342693.2,350.7292,241.1854,60.30646,50.3332
342709,350.5314,242.2805,60.29255,50.46068
342721.7,350.2559,243.1984,60.27316,50.56701
342737.8,349.9246,244.3163,60.2498,50.69587
342752.4,349.6414,245.6989,60.22982,50.85426
342768.6,349.3667,247.3825,60.2104,51.04568
342787.7,349.2022,248.6893,60.19876,51.19318
342802.5,349.3914,250.0271,60.21214,51.34323
342819.8,349.5114,250.8477,60.22063,51.43476
342832.5,349.6946,251.8826,60.23357,51.54969
342850.4,349.9753,253.2344,60.25338,51.69895
342869.9,349.9843,254.7416,60.25401,51.86421
342885.1,350.0546,256.3828,60.25896,52.04279
342901.2,350.2541,258.5291,60.27303,52.2742
342921.7,350.2678,259.369,60.27399,52.36411
342934,350.257,260.1293,60.27324,52.44517
342949.1,350.2278,261.0959,60.27118,52.54782
342967.6,350.2574,261.9429,60.27326,52.63736
342984.3,350.1167,262.7965,60.26335,52.72723
343000.7,349.9297,263.6566,60.25016,52.81742
343018.1,349.8074,264.688,60.24153,52.92506
343032.7,349.5847,265.849,60.22581,53.04561
343051.2,349.2931,266.8316,60.2052,53.1471
343068.5,348.9918,267.8306,60.18387,53.24981
343084,348.7277,268.4991,60.16515,53.31826
343101.1,348.586,268.7177,60.1551,53.34059
343118.7,348.5417,268.4526,60.15196,53.31351
343133.4,348.585,267.5501,60.15503,53.22102
343150.3,348.4163,266.4563,60.14305,53.10839
343168.3,347.9641,264.8488,60.11092,52.9418
343184.8,347.772,263.6318,60.09725,52.81481
343201.8,347.5569,262.4477,60.08193,52.69054
343217.7,347.5973,261.679,60.0848,52.6095
343233.5,347.5713,260.9744,60.08295,52.53493
343252.8,347.4779,260.4044,60.07629,52.47443
343270.7,347.3677,259.2946,60.06844,52.35616
343286.5,347.3615,257.9576,60.068,52.21281
343303.4,347.1891,256.5778,60.05569,52.06391
343321.2,346.817,255.2325,60.02911,51.91778
343337.8,346.3676,254.0557,59.99695,51.78916
343352.3,346.0752,252.6075,59.97599,51.62986
343372.3,345.973,251.4763,59.96866,51.50465
343387.1,346.0141,250.5052,59.97161,51.39661
343403.8,345.9879,249.6579,59.96973,51.30191
343419.8,345.7505,248.7771,59.95269,51.20307
343436.7,345.4618,247.6492,59.93194,51.07586
343454.4,344.9742,246.2781,59.89684,50.9203
343471.5,344.4679,245.2523,59.86031,50.80321
343486.6,343.4852,244.308,59.78918,50.69492
343503.5,342.144,242.7933,59.69162,50.52015
343526.8,341.255,242.0419,59.62663,50.43297
343538.6,340.2894,241.2313,59.55576,50.33856
343552.3,339.0068,240.6362,59.46115,50.26901
343572.8,337.6605,239.8733,59.36127,50.17955
