Time Stamp(ms),Intersection,,Angle,
,x,y,x,y
810343,317.2826,247.2204,57.7746,51.02733
810361.7,317.5828,247.1122,57.79904,51.01506
810376.7,317.7607,246.9943,57.81351,51.00169
810394.8,317.9416,246.8524,57.82821,50.98558
810410.6,318.0923,246.6364,57.84044,50.96105
810426.8,318.3531,246.67,57.8616,50.96487
810444.1,318.5275,246.5762,57.87573,50.95421
810460.9,318.721,246.8079,57.8914,50.98053
810477.1,318.8683,247.0434,57.90331,51.00726
810492.5,318.9335,247.1204,57.90858,51.01599
810509.9,318.9056,247.0528,57.90633,51.00832
810526.6,318.8192,247.007,57.89934,51.00312
810544.2,318.6306,246.8909,57.88408,50.98995
810561.4,318.6858,246.9167,57.88855,50.99289
810576.5,318.8206,246.9176,57.89945,50.99299
810592.7,319.0325,247.0396,57.91659,51.00682
810610.7,319.1781,247.0814,57.92835,51.01157
810628.7,319.284,247.1539,57.93691,51.01979
810643.6,319.4745,246.9817,57.95228,51.00026
810662.4,319.6941,247.0338,57.96998,51.00616
810679.1,319.8429,247.3145,57.98197,51.03798
810692.4,319.9757,247.5851,57.99266,51.06861
810712.9,320.0447,247.6499,57.99822,51.07595
810728.4,320.1011,247.6208,58.00275,51.07266
810743.6,320.1329,247.6994,58.00531,51.08154
810763.1,320.1573,247.9098,58.00727,51.10532
810776.8,320.1632,247.934,58.00774,51.10806
810796.6,320.2204,247.9685,58.01234,51.11195
810809.8,320.1891,248.1586,58.00983,51.13341
810828.7,320.1835,248.4813,58.00938,51.16978
810844.3,320.2164,248.8288,58.01202,51.20887
810859.5,320.2153,249.1123,58.01194,51.24073
810876.2,320.0703,249.0956,58.00027,51.23886
810892.4,319.628,248.9822,57.96466,51.22612
810913.8,318.97,248.7667,57.91154,51.2019
810926.6,318.3213,248.724,57.85902,51.19709
810942.1,317.5839,248.931,57.79913,51.22037
810959.8,316.946,249.2185,57.74715,51.25266
810977.9,316.1308,249.8323,57.68053,51.32143
810994.4,315.0462,250.509,57.5915,51.39703
811012.8,313.9668,251.0003,57.50245,51.45175
811025.8,312.456,251.5579,57.37709,51.5137
811043.1,311.024,251.7672,57.25748,51.53691
811062.9,309.7194,252.1469,57.14782,51.57896
811078.1,308.3075,252.7064,57.0284,51.64077
811092.4,306.8569,253.263,56.90491,51.7021
811108.5,305.0754,254.1508,56.75213,51.79957
811127.8,303.3806,254.9044,56.60561,51.882
811142.9,301.3586,255.8607,56.42931,51.98614
811163.3,299.2205,256.7389,56.2411,52.08135
811180.2,296.9997,257.4577,56.04362,52.15899
811197.5,294.9908,258.1884,55.86324,52.23763
811208.9,292.3749,259.2395,55.62579,52.35027
811227.1,289.8126,260.5519,55.3904,52.49011
811246.9,287.2453,262.1607,55.1517,52.66032
811264.1,284.8506,263.3817,54.92645,52.78863
811282.6,282.7726,264.1374,54.72892,52.86766
811296.4,280.5536,264.459,54.51583,52.90121
811310.4,278.0863,265.0116,54.27627,52.95873
811329.4,275.0492,265.7941,53.9775,53.03992
811354.1,273.1087,266.7084,53.78434,53.13441
811364.5,271.2895,267.6964,53.60162,53.23603
811382.4,268.9887,268.9356,53.36826,53.36283
811396.3,266.5027,269.8185,53.11319,53.45272
811411.8,263.2871,270.8325,52.77872,53.55548
811429.5,260.3904,271.9959,52.47295,53.67276
811448.1,258.1246,273.0977,52.23077,53.78324
811462.9,255.9701,274.3953,51.99802,53.91261
811479.8,253.7649,275.4868,51.75725,54.02082
811497.8,251.2801,276.4919,51.48285,54.11996
811513.1,248.4222,277.2619,51.16312,54.19559
811529.8,245.7092,277.7506,50.85543,54.24345
811546.9,242.7956,278.4216,50.52042,54.30899
811564,240.3003,278.8832,50.22966,54.35395
811579.3,237.9725,279.6095,49.9552,54.4245
811596.8,235.5377,280.3817,49.66472,54.49923
811613.8,232.6688,281.3716,49.31795,54.59465
811633.1,230.852,281.7201,49.09579,54.62813
811647.1,229.0045,281.927,48.86781,54.64798
811663.1,227.3358,282.0595,48.6601,54.66068
811679.5,225.5622,282.2038,48.43745,54.6745
811694.8,223.3048,282.4497,48.1512,54.69805
811712.1,220.6167,282.6796,47.80614,54.72003
811731.1,218.475,282.3481,47.52788,54.68832
811748.1,216.4353,281.8718,47.2601,54.64268
811762.1,214.1552,281.4686,46.95752,54.60397
811780.6,212.3488,280.9821,46.71535,54.55715
811797.9,210.6653,280.5916,46.48768,54.5195
811813.3,208.9367,280.3395,46.25191,54.49516
811830.3,207.0798,280.0386,45.99637,54.46606
811849.1,205.7327,279.7379,45.80949,54.43694
811863.8,204.5999,279.2874,45.65137,54.39324
811883.6,203.5049,278.6356,45.49767,54.32984
811896.3,202.6525,278.1459,45.37744,54.28209
811913.4,202.4713,277.7075,45.3518,54.23924
811932.5,202.508,277.5081,45.35701,54.21972
811948.8,203.0468,277.4473,45.43311,54.21376
811963.2,203.3877,276.9756,45.48116,54.1675
811980.6,203.689,276.7095,45.52357,54.14137
811997.2,203.8091,276.398,45.54045,54.11072
812014.1,203.8729,276.0663,45.54941,54.07803
812031,203.9762,276.3149,45.56392,54.10254
812051.3,204.2233,276.4667,45.59859,54.11749
812066.1,204.4549,276.449,45.63106,54.11574
812081.1,204.6837,276.3115,45.66309,54.1022
812100.4,205.044,275.8024,45.71346,54.052
812115.8,205.5038,275.2292,45.77761,53.99533
812131.4,206.0508,274.7062,45.85373,53.94349
812149.1,206.2984,274.5349,45.88813,53.92648
812166,206.6687,274.5044,45.93948,53.92345
812183.3,207.1361,274.3307,46.00415,53.90619
812197.7,207.7252,274.2781,46.08546,53.90096
812213.8,208.6134,274.1438,46.20759,53.8876
812231.4,209.2731,274.2231,46.29795,53.89549
812250.3,209.9714,274.0497,46.39329,53.87823
812266,210.486,273.7005,46.46332,53.84344
812281.4,211.1282,273.5419,46.55048,53.82761
812297.8,211.38,273.334,46.58457,53.80686
812315.6,211.2837,273.3337,46.57153,53.80683
812330.6,211.927,273.0775,46.65849,53.78122
812348.8,212.2196,272.8407,46.69794,53.75752
812364.3,212.7323,272.7591,46.76695,53.74935
812382.3,213.1111,272.2094,46.81782,53.69422
812399.6,213.4888,271.7027,46.86844,53.64327
812415.6,214.1046,271.0098,46.95077,53.57339
812433.6,214.8281,270.2473,47.04718,53.49623
812447.7,215.2253,269.2642,47.09996,53.39633
812463.9,215.5079,268.1662,47.13744,53.2842
812480.7,216.4579,266.8607,47.26308,53.15011
812497.3,216.9669,265.745,47.33015,53.03484
812515.7,217.3539,264.1135,47.38103,52.86516
812533.6,218.8707,262.1196,47.57951,52.65599
812550.1,216.5436,260.5541,47.27439,52.49035
812565.6,218.1434,258.0712,47.48452,52.22504
812584.5,218.6187,256.5575,47.54663,52.06172
812601.3,219.1711,254.5407,47.61864,51.84225
812616.9,219.8805,252.4531,47.71082,51.6128
812633.2,220.4254,250.1434,47.78139,51.35622
812653.6,220.9614,247.6343,47.85064,51.07418
812666.6,221.362,245.2669,47.90226,50.80489
812683.6,221.0537,243.1431,47.86254,50.56062
812701.8,220.7918,241.421,47.82875,50.36069
812718.3,220.4968,239.7617,47.79064,50.16644
812734.1,220.1946,237.6449,47.75152,49.91631
812752.1,219.9053,235.6579,47.71403,49.67913
812768.6,219.5065,233.8435,47.66225,49.46053
812783.7,219.0467,232.1391,47.60244,49.25338
812799.8,218.6967,230.5568,47.55682,49.05951
812817.6,218.4428,229.1347,47.52366,48.88395
812835.4,218.1755,227.5175,47.48873,48.68281
812856,217.9914,226.1595,47.46464,48.51266
812868.6,218.0247,224.3491,47.46899,48.28403
812889,218.0437,221.7131,47.47147,47.94743
812910.4,217.9291,219.3414,47.45647,47.6408
812925.4,217.871,217.9294,47.44886,47.45652
812937.9,218.0621,216.7471,47.47389,47.30121
812950.8,218.3471,215.331,47.51116,47.11398
812968,218.4904,213.9975,47.52988,46.93646
812984.1,218.4469,212.6135,47.5242,46.75097
813001.3,218.499,210.902,47.53101,46.51981
813019.2,218.7088,209.5206,47.5584,46.33179
813034.4,219.1668,207.6133,47.61808,46.07003
813051,219.8412,205.9437,47.70572,45.83884
813069.1,220.3325,204.8457,47.76937,45.68575
813085.1,220.9905,203.7488,47.8544,45.53197
813102.8,221.5107,202.6175,47.92141,45.37248
813121.9,221.8286,201.6755,47.96227,45.239
813135.7,222.1011,201.1452,47.99726,45.16357
813152.4,222.3117,200.6243,48.02426,45.08929
813171.6,222.772,199.7622,48.08318,44.96592
813186.6,223.3716,198.905,48.15973,44.84272
813201.4,223.9454,198.308,48.23276,44.75661
813219.1,224.2489,197.5703,48.27131,44.64985
813234.3,224.5654,197.2636,48.31145,44.60535
813251.6,224.8721,196.8452,48.35028,44.54452
813268.6,225.0805,196.7653,48.37663,44.5329
813284.4,225.4615,196.7743,48.42476,44.53421
813301.8,225.8123,196.8856,48.46897,44.5504
813318.6,226.1048,196.8231,48.50578,44.5413
813334.2,226.2451,196.7717,48.52342,44.53383
813351.6,226.413,196.8008,48.5445,44.53807
813368.3,226.6293,196.7088,48.57164,44.52467
813386.9,226.8094,196.3553,48.59423,44.47315
813403.5,227.0373,196.3476,48.62277,44.47203
813420,227.2598,196.4061,48.6506,44.48056
813434.1,227.4613,196.3296,48.67579,44.46941
813451.6,227.5358,196.4389,48.68509,44.48535
813469.3,227.5573,196.4728,48.68778,44.49028
813485.4,227.6892,196.5635,48.70424,44.50351
813503.4,227.8185,196.6734,48.72036,44.51952
813518.7,228.2348,196.696,48.77222,44.52281
813535.8,228.5578,196.7815,48.81238,44.53526
813553.4,228.7951,196.8277,48.84185,44.54197
813568.8,228.7931,196.8406,48.8416,44.54385
813589.6,228.6156,196.7823,48.81956,44.53537
813606.7,228.4935,196.9383,48.8044,44.55807
813619.6,228.3961,197.1765,48.79228,44.5927
813634.8,228.3991,197.4261,48.79266,44.62893
813652.1,227.8513,197.5437,48.72446,44.646
813669.1,228.212,197.3814,48.76938,44.62245
813684.8,228.502,197.4979,48.80545,44.63935
813701.5,228.6755,197.8546,48.827,44.69105
813718.7,228.6978,198.0756,48.82977,44.72302
813734.3,228.4291,198.4071,48.79638,44.77092
813752,228.4586,198.4812,48.80006,44.78162
813768.9,228.5291,198.5706,48.80882,44.79452
813786.3,228.6189,198.8792,48.81997,44.839
813804.9,228.7703,198.8763,48.83877,44.83859
813820.8,228.9366,199.0535,48.8594,44.8641
813837.4,228.9102,198.9979,48.85612,44.8561
813852.6,228.7802,198.9585,48.84,44.85043
813871,228.7831,199.0647,48.84036,44.86572
813887.6,228.7987,199.3482,48.84229,44.90648
813903.2,228.8071,199.4988,48.84334,44.92812
813918.4,228.8796,199.8424,48.85233,44.97741
813934.4,228.8112,200.3109,48.84385,45.0445
813951.2,228.6739,200.5049,48.8268,45.07223
813967.9,228.6845,200.5063,48.82812,45.07243
813985.4,228.714,200.5914,48.83178,45.08459
814001.2,228.6915,200.6212,48.82899,45.08884
814025.6,228.5088,200.2958,48.80629,45.04234
814040,228.5239,200.3123,48.80817,45.0447
814053.4,228.7183,200.6229,48.83231,45.08908
814071.1,228.7663,201.1778,48.83828,45.16821
814088.1,229.022,201.4741,48.86999,45.21038
814106.4,229.1251,201.7402,48.88277,45.24818
814121.1,228.8103,201.7802,48.84373,45.25387
814139.5,228.7948,202.0114,48.84181,45.28667
814156.2,228.855,202.0911,48.84928,45.29797
814170.6,228.8503,202.2621,48.84869,45.32219
814186.5,228.8227,202.4205,48.84527,45.34462
814203.6,228.8803,202.2706,48.85241,45.32341
814222.1,229.2197,202.2806,48.89448,45.32481
814236.7,229.4813,202.0016,48.92685,45.28527
814256.2,229.6018,201.8035,48.94175,45.25718
814271.8,229.5319,201.8083,48.9331,45.25786
814286.1,229.4083,201.4498,48.91782,45.20692
814303.4,229.4718,201.4402,48.92568,45.20555
814320.1,229.6068,201.8344,48.94236,45.26155
814339.9,229.7571,201.9659,48.96094,45.28022
814356.9,229.8738,202.0767,48.97535,45.29593
814375.1,229.8425,202.1058,48.97149,45.30005
814389.4,229.8019,202.0662,48.96647,45.29444
814406.2,229.8424,202.0564,48.97147,45.29305
814424.9,229.8024,202.2469,48.96652,45.32005
814440,229.8605,202.5581,48.97369,45.36408
814455.5,229.8345,202.5454,48.9705,45.36229
814473.6,229.8907,202.5524,48.97743,45.36328
814490.1,230.1008,202.2605,49.00335,45.32196
814507.7,230.0385,202.1512,48.99566,45.30648
814524.3,229.8932,202.1466,48.97774,45.30584
814542.3,229.6544,202.1102,48.94825,45.30067
814556.7,229.5206,201.8138,48.93171,45.25863
814571.6,229.6724,201.5949,48.95047,45.22754
814589.7,229.9065,201.5072,48.97938,45.21508
814605.1,230.2224,201.4843,49.01833,45.21183
814622.4,230.3585,201.2638,49.0351,45.18046
814639.8,230.469,200.8659,49.0487,45.12377
814655.3,230.7174,200.8864,49.07925,45.12668
814673.3,230.8746,201.0137,49.09856,45.14483
814689.7,231.0519,201.1964,49.12032,45.17086
814706.4,231.1016,201.3094,49.12642,45.18694
814724.1,230.9708,201.0431,49.11038,45.14902
814739.1,231.0719,200.917,49.12278,45.13105
814756.3,231.2616,200.8515,49.14604,45.12171
814774.1,231.3362,200.9949,49.15519,45.14216
814790.9,231.4114,201.095,49.1644,45.15642
814808.3,231.3768,201.0391,49.16016,45.14846
814825.8,231.2885,200.7174,49.14935,45.10258
814839.9,231.2388,200.5665,49.14325,45.08104
814855.7,231.387,200.4693,49.16141,45.06715
814872.7,231.5621,200.3399,49.18286,45.04865
814890.6,231.603,200.1829,49.18786,45.02619
814908.5,231.6212,200.0458,49.19008,45.00656
814924.6,231.6171,200.0081,49.18958,45.00116
814943,231.6727,199.635,49.19638,44.94767
814960.6,231.867,199.4804,49.22014,44.92548
814976.9,232.2929,199.4499,49.27214,44.92109
814990,232.986,199.4757,49.35653,44.9248
815007.8,233.8492,199.0839,49.46121,44.86848
815022.9,234.6507,198.5074,49.55802,44.78541
815042.3,235.4613,198.1707,49.65554,44.73677
815057.5,236.375,198.0181,49.765,44.7147
815073.5,237.3846,198.2315,49.88536,44.74556
815090.4,238.7039,198.5233,50.04177,44.7877
815108.2,240.1004,198.8358,50.20621,44.83275
815125,241.6835,198.9308,50.39127,44.84644
815140.6,243.899,198.7991,50.64785,44.82747
815156.4,246.2701,198.2011,50.91938,44.74117
815176.6,248.803,197.3604,51.20598,44.6194
815194.6,250.7187,196.5679,51.4204,44.50415
815206.8,253.1013,195.6031,51.6843,44.36321
815224.1,255.2967,195.062,51.92477,44.28389
815241.6,257.5523,194.3969,52.16919,44.18607
815259.4,259.6268,193.6823,52.39163,44.08062
815275.9,261.4862,192.841,52.58912,43.95599
815290.4,263.0717,192.0408,52.75613,43.83694
815308.9,264.7315,190.8473,52.9296,43.65851
815326.3,266.4252,189.6916,53.10519,43.48473
815343.1,267.947,188.6602,53.26174,43.32878
815358.1,269.3958,187.6702,53.40973,43.17833
815373.8,270.8311,186.7644,53.55533,43.04002
815390.1,272.0758,186.0431,53.68079,42.92945
815408.4,273.3157,185.6434,53.80503,42.868
815425.8,274.5304,185.0471,53.92603,42.7761
815442,275.5317,184.5119,54.02526,42.69338
815457.3,276.6589,183.8499,54.13639,42.59076
815472.8,277.7638,183.164,54.24474,42.48407
815492.1,278.7114,182.5496,54.33723,42.38821
815507.1,279.6822,181.9289,54.43154,42.29105
815524.1,280.7156,181.1154,54.53147,42.16327
815543.4,281.7471,180.3217,54.63072,42.0381
815561.4,282.857,179.4465,54.73698,41.89949
815574.6,284.0084,178.59,54.84662,41.76325
815591.4,285.4048,177.5559,54.9788,41.59801
815610.4,286.7284,176.7226,55.10329,41.46423
815625.1,288.0248,175.8658,55.22448,41.3261
815640.9,289.5472,175.2669,55.36586,41.22921
815658.6,291.2971,174.4257,55.52712,41.09261
815674.6,293.378,173.8654,55.71718,41.00132
815692.8,295.1005,173.4521,55.87313,40.9338
815709.8,296.8755,173.0932,56.03251,40.87507
815727.9,298.4962,172.8749,56.17691,40.8393
815743.1,300.1164,172.8281,56.32019,40.83162
815758.9,301.8678,172.5925,56.47387,40.79296
815774.1,303.8874,172.2249,56.64954,40.73256
815791.1,305.8966,171.6449,56.82271,40.637
815809.1,308.1604,171.2288,57.01591,40.56828
815830.7,310.436,170.7014,57.20813,40.481
815843.9,312.5052,170.2152,57.38119,40.40031
815861,314.8134,169.7729,57.57233,40.32674
815876.4,316.8415,169.4922,57.73863,40.27998
815892.2,318.9731,169.562,57.91179,40.29161
815908.9,321.2269,169.9261,58.09307,40.35224
815929.3,323.1028,170.1116,58.24258,40.38309
815945.9,325.039,170.483,58.39557,40.44478
815959.3,327.2434,170.6498,58.56815,40.47243
815974,329.8339,170.773,58.76881,40.49285
815992.3,332.0745,170.8594,58.94052,40.50717
816009.7,333.885,171.0662,59.07803,40.5414
816027.6,336.2905,171.2054,59.25904,40.56441
816043.5,337.7549,171.6398,59.3683,40.63616
816060.9,339.7212,172.1847,59.51391,40.72594
816078,341.4988,172.342,59.64447,40.75181
816094.8,343.2288,172.4231,59.77057,40.76513
816110.8,345.0132,172.1354,59.89964,40.71782
816127.1,346.7228,172.0479,60.02238,40.70342
816144.6,347.8975,171.9487,60.10618,40.68708
816162,349.1906,172.0726,60.19794,40.70749
816179.9,350.2112,172.0932,60.27001,40.71088
816193.8,351.4983,172.1005,60.36043,40.71208
816211.1,352.8141,171.8698,60.45236,40.67408
816227.3,354.0325,171.7079,60.53703,40.64738
816243.6,355.3318,171.5457,60.62683,40.62063
816263.6,356.6861,171.2156,60.71991,40.5661
816279,357.8048,170.9482,60.79638,40.52187
816293.3,359.3114,170.6289,60.8988,40.46896
816312.2,360.3441,170.5307,60.96863,40.45268
816328.1,361.3778,170.5173,61.03822,40.45047
816344.9,362.3828,170.5467,61.10558,40.45533
816363.5,363.4073,170.5803,61.17395,40.46092
816379.1,364.4614,170.7075,61.244,40.482
816393.6,365.8031,170.5046,61.33271,40.44835
816411.3,367.1856,170.3379,61.42359,40.42068
816428.6,368.4727,170.3702,61.50773,40.42605
816445.3,369.8616,170.4715,61.59801,40.44287
816461.2,371.6426,170.6594,61.71302,40.47403
816479.4,373.2643,170.7927,61.817,40.49611
816495.1,375.0473,171.1902,61.93052,40.5619
816511.1,376.7946,171.8955,62.04094,40.67832
816529.4,378.1566,172.5018,62.12647,40.77807
816544.6,379.2225,173.5991,62.19307,40.95783
816561.6,380.4268,174.3724,62.26796,41.08393
816581.5,381.7518,175.1646,62.34993,41.21262
816593.3,383.0812,176.327,62.43173,41.40053
816611.3,384.3749,177.3885,62.5109,41.57117
816628.1,385.5287,178.3638,62.58115,41.72718
816645.3,386.6109,179.2078,62.64675,41.86157
816661.6,387.4344,179.9894,62.69648,41.98553
816677.8,388.1848,181.1337,62.74164,42.16615
816694.3,389.1191,182.2254,62.79768,42.3375
816712.3,390.065,183.0237,62.85419,42.4622
816727.2,391.136,184.0994,62.91793,42.62948
816745.8,391.8759,185.3612,62.9618,42.82454
816762.9,392.3808,186.6804,62.99165,43.02717
816778,393.0286,187.227,63.02987,43.11074
816793.9,393.8546,187.8864,63.07847,43.21125
816811.9,394.5863,188.3179,63.12138,43.27684
816828.4,395.2069,188.9722,63.15767,43.37604
816845,395.6788,189.6746,63.18521,43.48216
816862.6,396.098,189.876,63.20962,43.51252
816879.1,396.4089,190.2299,63.22771,43.5658
816895.6,396.6191,190.6066,63.23992,43.62241
816912.5,396.9272,190.9081,63.2578,43.66763
816927.9,397.4087,191.4507,63.28571,43.74886
816946.3,398.0379,191.9433,63.32209,43.8224
816963.5,398.6712,192.1815,63.35861,43.85791
816979.4,399.1349,192.7,63.3853,43.93503
816994.9,399.6478,193.3856,63.41476,44.03672
817012,400.0943,194.1617,63.44035,44.1514
817029.7,400.4053,194.8678,63.45815,44.25535
817045.3,400.8334,195.552,63.48262,44.35574
817061.9,401.2198,196.3092,63.50467,44.46642
817079.3,400.9778,197.1758,63.49087,44.59259
817094.6,400.5239,198.3577,63.46494,44.76379
817112.7,400.3689,199.8174,63.45607,44.97384
817128.2,400.4648,200.7823,63.46156,45.11184
817144.6,400.6691,202.1973,63.47323,45.31302
817163.2,401.2388,203.5283,63.50575,45.50096
817179.3,401.4975,204.6702,63.52049,45.66121
817196.3,401.6631,206.0417,63.52992,45.85247
817214.4,401.9149,207.1859,63.54425,46.01103
817230.8,401.9077,208.4406,63.54384,46.18388
817246.9,401.6476,209.9171,63.52904,46.38589
817264.2,401.0934,211.5829,63.49746,46.61201
817278.9,400.4133,213.2831,63.45861,46.84088
817294.2,399.6187,215.2176,63.41309,47.09893
817313.4,399.0433,217.0541,63.38003,47.34162
817328.3,398.5589,218.6413,63.35214,47.54959
817344.4,398.0541,220.0277,63.32302,47.72991
817360.8,397.7445,221.4065,63.30513,47.908
817378,397.7263,222.4965,63.30408,48.04793
817394.6,397.7034,223.6783,63.30276,48.19879
817411.5,397.6825,224.5777,63.30155,48.31301
817430.1,397.7473,225.2605,63.30529,48.39938
817448.4,397.8851,225.6836,63.31326,48.45275
817461.8,398.4112,226.0822,63.34363,48.50294
817481.3,398.8889,226.6604,63.37114,48.57555
817499.4,399.0803,227.4064,63.38216,48.66893
817513.1,399.0909,228.5186,63.38277,48.80751
817530.5,398.7585,229.4864,63.36364,48.92748
817547.3,398.0721,230.3645,63.32406,49.03584
817563,397.6903,231.2576,63.302,49.14555
817580.3,397.294,232.2389,63.27906,49.26555
817596.6,396.9046,233.337,63.25649,49.39915
817613.3,396.3588,234.6955,63.22479,49.56342
817630.4,395.6981,236.2854,63.18633,49.75429
817646.7,394.8668,238.1536,63.13779,49.97666
817664.1,394.2772,239.6494,63.10326,50.15323
817680.3,394.2224,240.9595,63.10005,50.30682
817700.6,392.8481,242.6123,63.01924,50.49917
817719.2,392.0395,244.4373,62.97148,50.70978
817731,391.6709,246.3706,62.94965,50.93082
817749.6,389.8882,248.4396,62.84365,51.16508
817765.8,389.0408,249.804,62.79299,51.31827
817780.8,388.633,250.6451,62.76855,51.41219
817799.5,386.5306,252.2728,62.6419,51.59288
817816,384.9944,254.0024,62.54866,51.78331
817833.3,383.7788,255.1349,62.47447,51.90713
