Time Stamp(ms),Intersection,,Angle,
,x,y,x,y
763577.6,329.3126,249.6191,58.72861,51.29757
763592.8,329.1139,249.6756,58.71327,51.3039
763609.7,328.8871,249.5636,58.69574,51.29135
763627,328.4171,249.2572,58.65935,51.257
763644.3,328.0482,248.865,58.63074,51.21295
763659.7,327.7519,248.5132,58.60772,51.17337
763676.5,327.316,248.3576,58.57381,51.15584
763693.5,326.8461,248.2349,58.53717,51.14201
763710.2,326.5402,248.2887,58.51328,51.14807
763727.3,326.2805,248.3472,58.49297,51.15466
763744.3,326.052,248.2778,58.47508,51.14684
763760.6,325.954,248.1306,58.46741,51.13024
763777,325.8808,248.0464,58.46167,51.12075
763793.4,325.5607,247.9842,58.43657,51.11372
763812.7,325.2069,248.3476,58.40877,51.15471
763827,324.9615,248.9835,58.38947,51.22626
763844.4,324.7559,249.502,58.37328,51.28445
763860.9,324.5576,249.8847,58.35765,51.3273
763877.8,324.3626,250.1967,58.34227,51.36217
763893.8,324.1294,250.2114,58.32386,51.36381
763912.1,324.0501,250.0503,58.31759,51.34581
763928.3,324.1521,249.9967,58.32565,51.33983
763947.1,324.229,250.09,58.33173,51.35025
763962.3,324.4227,250.3041,58.34701,51.37416
763981.4,324.5665,250.7331,58.35836,51.422
763998.8,324.6639,251.2019,58.36603,51.47417
764013.7,324.6875,251.5957,58.36789,51.51789
764028.7,324.5764,251.9252,58.35913,51.55441
764045.4,324.4395,251.845,58.34834,51.54554
764062.1,324.4383,252.223,58.34824,51.58737
764079,324.3027,252.6223,58.33754,51.63149
764096.4,323.6805,253.8274,58.28836,51.76411
764113,322.3214,254.4338,58.18045,51.83057
764130.6,322.1428,255.8533,58.16623,51.98533
764146.8,322.2502,255.3537,58.17478,51.93098
764163.3,321.8602,255.5102,58.14369,51.94802
764180.7,321.7141,255.5588,58.13203,51.95331
764196.6,320.2384,254.3349,58.01379,51.81974
764212.6,318.5922,254.0707,57.88097,51.7908
764231.6,317.6317,254.7957,57.80302,51.87012
764248.1,316.892,255.603,57.74275,51.95812
764266.9,316.2895,256.4517,57.69352,52.05026
764280,315.6806,257.1605,57.64363,52.12692
764295.9,315.103,257.643,57.59616,52.17896
764312.5,314.1739,258.2792,57.51957,52.24739
764330.1,312.9886,259.4686,57.42138,52.37474
764354.3,311.836,261.057,57.3254,52.54369
764368.1,311.015,262.403,57.25672,52.68585
764381.8,309.8609,263.7702,57.15974,52.82929
764398.1,308.7603,264.8432,57.06678,52.94122
764412.8,307.4046,265.8305,56.95164,53.04369
764430.5,305.9041,267.0988,56.82336,53.17463
764447.6,304.4792,268.405,56.70071,53.30864
764463.9,303.1239,269.9576,56.58332,53.46684
764481.1,301.7018,271.8217,56.45935,53.65525
764500.1,300.3894,273.738,56.34422,53.84718
764513.6,299.2726,275.3539,56.24571,54.00767
764529.2,298.0823,277.0852,56.14014,54.17826
764546.8,296.5593,278.9,56.00422,54.35558
764565.3,295.1024,280.4742,55.8733,54.50817
764580.6,293.4987,282.543,55.72815,54.70697
764600.1,292.1996,284.4881,55.60978,54.89212
764615.8,291.0029,286.4534,55.5001,55.07749
764629.1,289.919,288.145,55.40023,55.23568
764646.5,288.5378,289.9371,55.27223,55.40191
764664.1,287.2737,291.2982,55.15435,55.52722
764680.2,286.0569,292.5483,55.04023,55.64162
764696.3,285.0052,293.6934,54.94107,55.74583
764712,283.6628,294.8643,54.81377,55.85181
764728.9,282.2148,296.201,54.67556,55.9721
764745.9,280.7124,297.5654,54.53115,56.09412
764762.3,278.8386,299.365,54.34961,56.25388
764779.5,277.2618,300.6884,54.19559,56.37051
764794.8,275.5796,301.9538,54.02999,56.48138
764811.8,273.4229,303.1482,53.81573,56.58543
764839.8,271.9659,303.4079,53.66974,56.60798
764851.7,270.492,303.9933,53.52102,56.65871
764863.9,268.4201,304.9633,53.31018,56.74247
764882.9,266.2055,306.1264,53.08249,56.84241
764898.3,263.5771,307.6989,52.80909,56.97669
764914.6,261.0646,309.0341,52.54449,57.08995
764932.8,258.6842,310.093,52.29083,57.17928
764949.7,256.4645,310.9059,52.05165,57.24758
764965.6,254.1026,311.2195,51.7943,57.27385
764981.6,251.9664,311.8145,51.55898,57.3236
764997.2,249.757,312.4269,51.313,57.37467
765013.6,247.433,313.3509,51.0514,57.45145
765032.6,245.0952,314.3003,50.78523,57.53001
765050.5,242.972,314.7783,50.54084,57.56944
765068,241.1584,315.3845,50.33005,57.61931
765081.1,239.2317,315.8874,50.10406,57.66058
765098.3,237.4129,316.4747,49.88874,57.70867
765113.1,235.2224,317.2321,49.62684,57.77049
765132,233.4249,317.8676,49.40981,57.82219
765147.4,231.8335,318.7157,49.21605,57.89097
765162.9,230.5273,319.0697,49.05587,57.9196
765180.4,229.3781,319.0655,48.91409,57.91926
765197,227.6051,319.073,48.69375,57.91986
765211.7,227.164,318.782,48.63862,57.89633
765228.5,226.4185,318.2104,48.54519,57.85002
765245.8,226.2879,318.1135,48.52879,57.84216
765266.4,226.3598,318.1238,48.53782,57.843
765282.6,226.6179,317.6161,48.57021,57.80175
765296.3,226.7869,317.2176,48.59141,57.7693
765316.6,226.9491,316.7717,48.61172,57.73294
765330.3,227.2455,316.6014,48.64882,57.71902
765349,227.563,316.8442,48.68848,57.73885
765362.9,228.009,316.8594,48.74411,57.74009
765380,228.6245,316.3299,48.82067,57.69682
765396.6,229.086,315.8393,48.87791,57.65664
765413.7,229.5314,315.463,48.93304,57.62576
765431.4,229.784,314.799,48.96425,57.57114
765448.2,230.1605,314.2059,49.0107,57.52221
765462.4,230.438,313.9462,49.04488,57.50076
765481.4,230.6008,313.6529,49.06491,57.47647
765497.8,230.7237,313.423,49.08002,57.45744
765513.4,230.9786,313.0518,49.11133,57.42663
765530.9,231.1854,312.7731,49.1367,57.40347
765548,231.4583,312.0454,49.17014,57.34288
765564.6,231.7897,311.3827,49.2107,57.28751
765581.2,232.1643,310.9059,49.25645,57.24758
765597.8,232.485,310.5568,49.29557,57.21828
765613.6,232.8697,309.9258,49.34238,57.16521
765631,233.1437,309.3523,49.37569,57.11684
765647.1,233.187,307.9565,49.38095,56.9986
765664.8,233.6101,306.9185,49.43227,56.91017
765681.5,233.9259,306.2534,49.4705,56.85329
765696.8,234.1227,305.4842,49.49429,56.78729
765713.9,234.4019,304.7004,49.52802,56.71981
765729.6,234.7894,303.388,49.57474,56.60625
765746.9,235.1698,302.5035,49.62052,56.52934
765764.8,235.4473,301.0717,49.65386,56.40417
765782.4,235.907,299.4887,49.709,56.26481
765800.8,236.4579,298.143,49.77491,56.14554
765817.3,236.9467,296.6087,49.83324,56.00865
765834.4,237.3396,295.154,49.88002,55.87795
765853.6,237.887,293.2259,49.94505,55.70335
765870.4,238.2844,291.4137,49.99215,55.53782
765886.3,238.7486,289.5745,50.04705,55.36838
765905.9,239.2275,287.5507,50.10356,55.18024
765918.9,239.4329,285.5902,50.12775,54.99629
765934.7,239.7041,282.9338,50.15967,54.7443
765953.3,240.0847,280.649,50.20437,54.52504
765970,240.3364,278.7013,50.23389,54.33625
765984.9,240.7099,276.6341,50.27763,54.13395
766000.3,240.8083,274.8753,50.28915,53.96027
766019.1,240.8114,273.4823,50.28951,53.82167
766033.6,240.9031,271.7852,50.30023,53.65157
766052.5,240.963,270.2462,50.30722,53.49612
766069,240.9749,268.5984,50.30861,53.3284
766083.6,240.8602,266.9795,50.29522,53.16234
766102.9,240.7648,265.4178,50.28405,53.00092
766119.4,240.4291,263.8836,50.24475,52.84116
766134.3,240.1974,262.6176,50.2176,52.70843
766151.8,240.1301,261.5228,50.20969,52.59299
766168.3,240.0483,260.3292,50.2001,52.46643
766184.8,240.0267,258.9443,50.19756,52.31869
766204.6,240.0074,257.8233,50.1953,52.19837
766219.1,239.9451,256.5898,50.18798,52.06522
766235.6,239.8824,255.106,50.18062,51.90399
766252.1,239.9525,253.539,50.18885,51.73244
766269.2,239.9773,252.1711,50.19176,51.58164
766285.7,240.0007,251.0741,50.19451,51.45995
766302.8,240.0455,249.8399,50.19977,51.32228
766320.9,240.0864,248.4856,50.20457,51.17026
766334,240.269,247.0509,50.22599,51.00811
766350.6,240.5609,245.2635,50.2602,50.8045
766367.1,240.7237,243.5883,50.27925,50.61204
766384.3,241.0911,241.7852,50.3222,50.40311
766401,241.4543,240.0541,50.36456,50.20078
766418.4,241.8206,238.1568,50.40723,49.97704
766434.1,242.3004,236.1105,50.46299,49.73336
766453.1,242.8151,234.3676,50.52267,49.52387
766467.4,243.6179,232.3799,50.61545,49.28275
766484.4,244.3071,230.861,50.69481,49.09689
766500.7,245.0156,229.2859,50.77612,48.90267
766517.8,246.0018,227.6454,50.88881,48.69878
766534.1,246.7763,225.8225,50.97694,48.47026
766551.1,247.7248,223.9661,51.08441,48.23539
766568.4,248.6815,221.4402,51.19231,47.91233
766586.8,249.4997,219.2642,51.28419,47.63075
766599.6,250.4366,216.8965,51.38895,47.32088
766615.7,251.5569,214.5139,51.51358,47.00535
766633.4,252.5686,212.5523,51.62557,46.74274
766649.8,253.7496,210.4998,51.75558,46.46519
766666.6,255.1745,208.2683,51.91145,46.16021
766682.7,256.4951,206.17,52.05496,45.87029
766699.7,257.7825,204.3084,52.19398,45.61054
766720.2,258.8595,202.6778,52.30962,45.381
766736.6,260.1623,201.2088,52.44868,45.17263
766752.6,261.4696,199.9534,52.58736,44.99332
766769.9,262.4055,199.2575,52.6861,44.89345
766784,263.4665,198.7939,52.79751,44.82671
766801.8,264.4243,198.3858,52.89759,44.76784
766817.8,265.1231,198.0595,52.97032,44.72069
766833.4,265.7811,197.9395,53.03858,44.70333
766851.3,266.5585,197.9483,53.11895,44.70461
766870.1,267.4213,197.885,53.20779,44.69544
766886.8,268.2592,197.8507,53.29372,44.69047
766903.9,269.2495,197.8291,53.39484,44.68735
766917,270.4144,197.7242,53.51317,44.67215
766935,271.6707,197.4383,53.64005,44.6307
766953.9,273.3405,197.3951,53.80751,44.62444
766968.4,275.1057,197.226,53.98309,44.59989
766987.6,276.8026,197.0785,54.15052,44.57846
767001,278.7345,197.13,54.33947,44.58594
767018.4,280.3954,197.1993,54.50056,44.596
767033.9,282.2523,197.4659,54.67915,44.63471
767051.5,284.5441,198.0361,54.89743,44.7173
767071,286.9077,198.4775,55.1201,44.78109
767089.3,289.2711,198.4834,55.34029,44.78193
767104.8,291.6594,198.8398,55.56034,44.83333
767121.6,294.4716,199.3988,55.81633,44.91376
767138.6,296.7739,199.9407,56.02343,44.99151
767152.1,299.5851,200.3344,56.27333,45.04786
767168.5,302.0855,201.5667,56.49288,45.22354
767186,304.511,202.361,56.70346,45.3362
767203.6,306.9218,202.8632,56.91045,45.40721
767219.6,309.2575,203.4207,57.10884,45.48581
767235.1,311.3238,204.1697,57.28258,45.59108
767254.2,313.0305,205.3036,57.42487,45.74971
767268.3,314.6269,206.5382,57.55696,45.92139
767287.1,316.3729,207.4975,57.70034,46.05405
767305.1,317.5955,208.2751,57.80007,46.16114
767320.5,318.6675,209.0044,57.88707,46.26118
767334.6,319.6115,209.4361,57.96332,46.32024
767350.9,320.1688,209.6898,58.00819,46.35489
767367.9,321.1139,209.781,58.08403,46.36732
767384.8,321.5608,210.3183,58.11978,46.44052
767401.8,322.236,210.3847,58.17365,46.44955
767421.7,322.8576,210.8252,58.2231,46.50938
767435.9,323.6966,210.7445,58.28964,46.49843
767452,324.6302,210.7411,58.36337,46.49797
767471.1,326.0656,210.8037,58.47615,46.50647
767488.2,327.2307,211.0717,58.56716,46.54282
767504,328.3737,211.507,58.65598,46.60174
767522.4,329.6428,212.0724,58.75409,46.6781
767538.9,331.1498,212.6651,58.86986,46.75791
767554.3,332.5883,212.8665,58.97965,46.78498
767573.8,334.3967,213.1571,59.11669,46.82399
767588.4,335.793,213.5125,59.22176,46.8716
767603.8,337.2311,213.9633,59.3293,46.9319
767620.4,338.5793,214.431,59.4295,46.9943
767637.6,339.9287,214.7833,59.5292,47.04121
767654.9,341.4799,214.5951,59.64309,47.01617
767671.7,342.8835,214.741,59.74548,47.03559
767688.6,343.9422,215.1595,59.8223,47.09121
767708.7,344.9656,215.9917,59.89622,47.20151
767723.1,346.2393,216.7363,59.98775,47.29978
767738.7,347.7083,217.4576,60.09271,47.39465
767752.6,349.6195,218.2004,60.22826,47.49198
767773.7,351.6752,219.1194,60.37282,47.61192
767789.9,353.8253,220.1465,60.52266,47.74529
767806.8,355.8521,221.2627,60.66265,47.88948
767822.4,358.5199,222.7701,60.84508,48.08293
767838.7,361.0914,224.2234,61.01897,48.26807
767856.4,363.3588,225.8074,61.17073,48.46835
767872.6,365.6978,227.3574,61.32577,48.66281
767892.4,368.1774,228.6839,61.48846,48.82804
767907.9,370.4279,229.5481,61.63468,48.9351
767922.6,372.9258,230.4527,61.79536,49.0467
767940.2,375.0207,231.4898,61.92883,49.174
767955.8,376.9855,232.8897,62.05296,49.34481
767971.1,379.1609,234.6775,62.18923,49.56126
767990.3,381.614,235.6133,62.34143,49.67379
768008.4,383.6537,236.3343,62.46682,49.76013
768022.6,385.4795,236.7417,62.57817,49.80879
768039.9,386.8335,237.2421,62.66021,49.86842
768055.1,388.2556,237.8959,62.74589,49.94611
768070.7,389.8856,238.5197,62.84349,50.01999
768086.6,391.7218,239.168,62.95267,50.09654
768104,393.3622,239.9836,63.04952,50.1925
768121.3,394.7563,240.853,63.13132,50.29437
768138.1,395.8413,241.1804,63.19468,50.33262
768153.7,397.4321,241.3901,63.28706,50.35708
768171.3,399.1346,241.3188,63.38528,50.34877
768188.4,400.9437,241.2724,63.48892,50.34336
768205.4,402.5112,241.2155,63.57811,50.33671
768222.4,403.9232,241.07,63.65798,50.31973
768238.4,405.4015,240.4293,63.74112,50.24478
768253.6,407.0653,239.8851,63.83411,50.18093
768271.6,408.5662,239.0965,63.91748,50.08811
768288.4,410.0921,238.7121,64.00172,50.04273
768306.6,411.3246,238.5965,64.0694,50.02908
768322.4,412.4079,238.4536,64.12862,50.01218
768338.9,413.2738,238.3184,64.17577,49.99618
768356.8,414.1559,238.1398,64.22364,49.97502
768371.9,415.274,237.3499,64.28408,49.88124
768388.3,416.3176,236.9225,64.34026,49.83035
768404.1,417.3862,236.8583,64.39754,49.8227
768422.4,418.3101,237.0521,64.44687,49.8458
768438.9,419.1736,237.4394,64.49283,49.89189
768454.4,420.4124,237.8786,64.55848,49.94405
768471.3,421.5839,238.2386,64.62027,49.98672
768488,422.6654,238.1169,64.67707,49.97231
768504.6,423.3734,237.7831,64.71413,49.93272
768521.9,423.8366,237.4819,64.73832,49.89694
768537.8,424.1127,237.0188,64.75272,49.84183
768555.7,424.2949,236.9986,64.76221,49.83942
768571.8,424.2784,237.7782,64.76134,49.93213
768589.9,424.1511,238.769,64.75471,50.04945
768605,423.9966,239.8465,64.74666,50.1764
768621,424.0297,240.5766,64.74838,50.26202
768638.3,424.2158,240.8472,64.75809,50.29369
768654,424.3982,240.8372,64.76759,50.29253
768671,424.2796,241.2408,64.76141,50.33966
768687.6,423.9547,241.4918,64.74448,50.36894
768704.3,423.6397,241.8421,64.72803,50.40973
768721.2,423.8286,242.1073,64.73789,50.44057
768737.8,424.1084,242.4788,64.75249,50.4837
768754.5,424.0564,243.2943,64.74978,50.5781
768773.6,423.6269,244.2325,64.72737,50.68623
768790.4,423.1508,245.0302,64.70248,50.77778
768807.1,422.9681,245.4911,64.69292,50.83052
768823.4,422.6592,246.2619,64.67674,50.91845
768840.9,422.3492,247.0925,64.66049,51.01282
768853.5,422.1164,247.8883,64.64826,51.10289
768870.7,422.0064,248.5137,64.64249,51.17343
768887.6,421.9198,249.1448,64.63794,51.24438
768907.8,421.882,249.6328,64.63595,51.2991
768924.6,421.8571,250.1153,64.63464,51.35308
768942.3,421.8242,250.6632,64.63291,51.41422
768956.7,421.8092,251.3863,64.63213,51.49466
768973.2,421.879,252.0889,64.6358,51.57253
768987.7,422.0024,252.6488,64.64228,51.63441
769004.6,421.8587,253.4535,64.63473,51.72305
769020.9,421.648,254.3768,64.62365,51.82432
769039,421.5731,254.9947,64.61971,51.89185
769054.4,421.5749,255.6183,64.6198,51.95978
769070.9,421.5241,256.3489,64.61712,52.03912
769088.7,421.4971,256.7575,64.61571,52.08336
769104.8,421.4766,257.0919,64.61462,52.11951
769121.9,421.4871,257.5572,64.61517,52.16971
769138.8,421.4679,258.0619,64.61417,52.22403
769153.9,421.4017,258.8145,64.61068,52.30479
769171.9,421.3197,259.6152,64.60636,52.39039
769188.4,421.1873,260.4945,64.59938,52.48401
769204.7,421.1297,261.3117,64.59634,52.57066
769222.2,420.961,262.1911,64.58745,52.66352
769238.6,420.7929,262.8657,64.57858,52.7345
769254.5,420.8379,263.4381,64.58096,52.79453
769271.4,420.9092,263.9976,64.58472,52.85307
769288.6,420.8792,264.5539,64.58313,52.91109
769306.1,420.7516,265.0525,64.57639,52.96298
769322.5,420.8346,265.5261,64.58078,53.01215
769339.7,420.9302,265.9333,64.58582,53.05433
769355.1,421.0979,266.4075,64.59467,53.10336
769376.1,421.3051,266.9075,64.60559,53.15493
769392,421.564,267.3318,64.61922,53.19859
769410.4,421.7979,267.6516,64.63153,53.23145
769426.6,421.9313,267.8038,64.63854,53.24706
769442.5,422.0125,267.953,64.64281,53.26236
769459.6,422.0676,268.0237,64.64571,53.2696
769475.3,422.0742,268.0656,64.64605,53.2739
769493.4,422.0956,267.8879,64.64717,53.25569
769510.5,422.1013,267.7497,64.64747,53.24151
769527.9,422.175,267.4799,64.65134,53.21381
769544.3,422.1363,267.1835,64.64931,53.18334
769558.8,422.013,267.1735,64.64284,53.1823
769573.7,421.979,267.039,64.64105,53.16847
769591.9,422.0883,266.9058,64.64679,53.15475
769609.9,422.0643,266.8535,64.64553,53.14936
769626.4,422.1356,266.5558,64.64928,53.11866
769643.4,422.3851,266.0881,64.66238,53.07035
769660.5,422.4681,265.8978,64.66673,53.05066
769677.9,422.4318,265.6874,64.66483,53.02887
769692.1,422.4414,265.5576,64.66532,53.01541
769709.5,422.7339,265.0718,64.68066,52.96499
769725.3,422.838,264.8708,64.68611,52.94409
769744.3,422.7758,264.6897,64.68285,52.92524
769759.8,422.595,264.6777,64.67339,52.92399
769774.8,422.6263,264.5078,64.67502,52.9063
769793.9,422.5789,264.3862,64.67254,52.89362
769809.8,422.4696,264.4771,64.66681,52.90309
769827.9,422.5034,264.3906,64.66858,52.89407
769843.4,422.7043,264.2571,64.67912,52.88015
769859.8,422.807,264.3473,64.68449,52.88956
769874.9,422.8719,264.5003,64.68789,52.90551
769894.1,422.9933,264.5988,64.69424,52.91578
769910.1,422.988,264.7239,64.69397,52.92881
769926,422.8708,264.9301,64.68783,52.95026
769943.3,422.6406,265.2345,64.67577,52.98189
769961.8,422.5441,265.3682,64.67072,52.99577
769983.2,422.4151,265.6026,64.66395,53.02008
769995.1,422.1785,265.931,64.65153,53.0541
770009.6,421.9388,266.3375,64.63894,53.09612
770026.5,421.8135,266.8276,64.63235,53.14669
770043.3,421.6575,267.4396,64.62415,53.20967
770061.9,421.5008,268.0745,64.6159,53.27481
770077.3,421.3357,268.6695,64.6072,53.33567
770092.7,421.1382,269.2138,64.59679,53.3912
770109.1,420.9554,269.7509,64.58716,53.44585
770125.6,420.6198,270.321,64.56944,53.5037
770142.1,420.2389,270.8825,64.5493,53.56053
770159.8,419.8217,271.554,64.52721,53.62829
770174.9,419.2818,272.459,64.49857,53.71927
770191.9,418.6864,273.2155,64.46692,53.79502
770208.8,417.8855,274.0533,64.42422,53.8786
770226.9,417.1574,274.8433,64.38529,53.95709
770242.4,416.3539,275.563,64.3422,54.02834
770260.8,415.5061,275.8461,64.29659,54.05632
770278.9,414.6235,276.3261,64.24895,54.10364
770294,413.5225,277.0157,64.18929,54.17144
770311.9,412.7936,277.4264,64.14964,54.21172
770328.7,412.0342,277.7493,64.10822,54.24333
770344.7,411.377,277.9048,64.07227,54.25853
770365.9,410.7202,278.0042,64.03625,54.26824
770378.3,409.9489,278.1651,63.99384,54.28396
770394.4,409.2902,278.5175,63.95752,54.31834
770412.1,408.4573,278.5595,63.91145,54.32243
770428.8,407.8278,278.7623,63.87653,54.34218
770444.4,407.2968,278.7282,63.847,54.33886
770462.3,406.8435,278.5034,63.82175,54.31696
770479.3,406.3921,278.1556,63.79656,54.28304
770497.1,406.1107,277.7664,63.78084,54.245
770511.6,406.031,277.2734,63.77638,54.19672
770527,406.056,276.9615,63.77777,54.16612
770544.9,406.1328,276.6829,63.78207,54.13875
770561.8,406.2009,276.4948,63.78588,54.12025
770577.1,406.2906,276.0709,63.79089,54.07849
770593.3,406.3431,275.7501,63.79383,54.04683
770610.8,406.3386,275.2376,63.79357,53.99616
770628.9,406.2686,274.6757,63.78966,53.94046
770645.5,406.0863,274.3274,63.77947,53.90586
770664.2,405.9095,273.836,63.76958,53.85695
770680.1,405.7338,273.4723,63.75975,53.82067
770695.3,405.6022,273.075,63.75237,53.78096
770710.9,405.2648,272.6852,63.73346,53.74195
770728.4,404.7786,272.2627,63.70615,53.69957
770745.2,404.3182,271.9995,63.68024,53.67312
770763.4,403.872,271.5078,63.65509,53.62363
770780.2,403.1212,271.1714,63.61267,53.58971
770798,402.4979,270.729,63.57735,53.54501
770813.3,401.8318,270.3379,63.53952,53.50542
770830.1,401.4234,270.0156,63.51627,53.47272
770847.2,401.1745,269.8309,63.50209,53.45398
770864.1,400.9372,269.68,63.48854,53.43864
770879.8,400.7359,269.5407,63.47705,53.42447
770895.4,400.5929,269.3741,63.46888,53.40752
770912.3,400.7965,269.1669,63.48051,53.38642
770930.3,401.0863,268.799,63.49706,53.34889
770948.9,401.2722,268.4959,63.50766,53.31794
770963.1,401.4376,268.2997,63.51708,53.29786
770981.3,401.634,267.8327,63.52826,53.25003
770996.6,401.8454,267.5534,63.54029,53.22136
771014.8,402.0753,267.3427,63.55336,53.19971
771031.1,402.209,267.4299,63.56096,53.20867
771046.4,402.2743,267.3832,63.56466,53.20388
771063.7,402.2985,267.713,63.56604,53.23775
