Time Stamp(ms),Intersection,,Angle,
,x,y,x,y
922735.4,323.632,249.3434,58.28452,51.26667
922757.1,323.2509,249.3189,58.25433,51.26392
922770.7,322.9128,249.5829,58.22749,51.29352
922784.7,322.6108,249.7803,58.20348,51.31562
922801.5,322.2935,249.9033,58.17823,51.32938
922818.7,321.7827,250.0717,58.1375,51.34821
922836.3,321.3103,250.1933,58.09975,51.36179
922854.6,320.7646,250.0498,58.05605,51.34576
922872.1,320.2737,250.0772,58.01663,51.34882
922888.6,319.7869,250.1526,57.97746,51.35724
922903.9,319.2392,250.3722,57.93329,51.38176
922920.6,318.7469,250.5507,57.89349,51.40168
922938.3,318.3285,250.9367,57.8596,51.44468
922953.3,317.9985,251.36,57.83282,51.49174
922969.4,317.925,251.396,57.82685,51.49573
922985.5,317.7504,251.4651,57.81267,51.5034
923003.9,317.556,251.6463,57.79686,51.52351
923020.2,317.3645,251.8578,57.78127,51.54694
923040.7,317.2841,251.9323,57.77473,51.5552
923056.4,317.3259,252.0294,57.77813,51.56596
923070,317.3905,252.0122,57.78339,51.56404
923087.8,317.5618,252.1158,57.79733,51.57551
923104.3,317.7058,252.1053,57.80905,51.57435
923119.9,317.8211,252.0394,57.81842,51.56705
923136.8,317.8249,252.0305,57.81872,51.56607
923154.9,317.759,252.1424,57.81337,51.57846
923170.9,317.5569,252.2581,57.79693,51.59126
923187.3,317.3859,252.5391,57.78301,51.6223
923205.6,317.1435,253.0238,57.76327,51.67577
923221.3,316.8271,253.6101,57.73746,51.74026
923238.3,316.5604,254.1491,57.71567,51.79939
923255.2,316.1301,254.8532,57.68047,51.8764
923271.3,315.6027,255.6896,57.63723,51.96754
923288.4,314.8856,256.564,57.57828,52.06242
923304.3,313.7487,257.4832,57.48441,52.16174
923322.3,312.6066,258.3242,57.38963,52.25221
923337.3,311.3294,259.4622,57.28305,52.37406
923353.2,309.4867,261.3972,57.12819,52.5797
923372.5,307.9347,263.3358,56.99675,52.78382
923389.9,306.1815,265.9579,56.84713,53.05688
923405.1,304.4425,268.0995,56.69755,53.27737
923422.6,302.4532,269.8283,56.52496,53.45371
923438.3,300.2442,271.3608,56.33145,53.60882
923453.6,298.1691,273.2003,56.14786,53.7935
923471.9,295.8986,275.1899,55.94495,53.99144
923488.8,293.6129,277.2289,55.73852,54.19236
923506.4,291.6815,279.2823,55.56237,54.39275
923522.9,289.4384,281.7397,55.35578,54.63001
923541.9,287.6772,283.6812,55.19206,54.81553
923559,285.5793,285.6997,54.99526,55.0066
923572.9,283.506,287.7475,54.79885,55.19862
923588.2,281.5424,289.8661,54.61106,55.39534
923604.6,279.6806,291.8074,54.43139,55.5739
923622.2,277.7819,293.6567,54.24651,55.7425
923642.4,275.9132,295.1492,54.06294,55.87751
923658.1,274.3899,296.5082,53.91207,55.99965
923671.6,272.446,298.2478,53.71797,56.15485
923693.9,270.6504,299.9558,53.53706,56.30603
923709.2,269.083,301.5955,53.37787,56.45005
923725.4,267.5682,302.9949,53.22288,56.57211
923740.3,266.1264,304.183,53.07431,56.67513
923756.6,264.7998,305.0544,52.9367,56.75032
923772.1,262.8709,306.3846,52.73505,56.86453
923789.8,260.9405,307.7195,52.53134,56.97844
923806.6,259.0731,309.1702,52.33247,57.10146
923824.8,257.2463,310.7759,52.13618,57.23667
923845.9,255.2021,312.5536,51.91447,57.38522
923860.7,253.6703,313.731,51.74688,57.48294
923874.1,252.2843,314.8396,51.59415,57.57449
923889.5,250.9224,315.8309,51.44308,57.65595
923908.6,249.8936,316.502,51.3283,57.7109
923923.9,248.6775,317.356,51.19186,57.78058
923941.9,247.6103,318.0295,51.07146,57.83534
923956.9,246.7844,318.5927,50.97786,57.881
923973.7,246.2368,318.6279,50.91559,57.88386
923991.1,246.0892,317.8654,50.89877,57.82201
924007.8,245.9436,317.0404,50.88218,57.75486
924023.3,245.7436,316.1733,50.85936,57.68401
924040.1,245.737,315.4507,50.85861,57.62475
924054.5,245.2702,314.1097,50.80526,57.51427
924071.3,244.9338,313.0997,50.76674,57.43061
924088.1,244.5823,311.9559,50.72642,57.33541
924105,244.0621,310.9665,50.66663,57.25265
924122.6,243.6374,310.2457,50.6177,57.19213
924138.4,243.3479,309.5168,50.58429,57.13073
924154.4,243.1331,308.3934,50.55946,57.03569
924172.6,242.9498,306.9489,50.53827,56.91277
924189.9,242.8017,305.5897,50.52112,56.79636
924209.2,242.8524,304.6869,50.52699,56.71864
924223.8,242.7869,303.4245,50.51941,56.60942
924240.2,242.8088,302.2905,50.52194,56.51077
924256.6,242.7529,300.9883,50.51547,56.39685
924272.9,242.4225,300.0698,50.47717,56.31608
924288.4,242.1285,299.3148,50.44303,56.24944
924303.9,241.8927,298.2373,50.41562,56.15392
924321.4,241.5721,296.8904,50.3783,56.03385
924337.8,241.1978,295.4771,50.33466,55.90705
924353.2,240.6541,293.8366,50.2711,55.75882
924370.8,240.2195,291.9616,50.22019,55.58802
924391.9,239.9154,290.0903,50.18449,55.41605
924407.8,239.8432,288.2093,50.17601,55.24166
924424,239.913,286.2316,50.18421,55.05666
924441.1,239.8993,284.0558,50.18261,54.85112
924456.9,239.7525,281.5875,50.16536,54.61539
924473.5,239.5927,278.9604,50.14656,54.36146
924487.4,239.189,276.0601,50.09902,54.07743
924504.3,238.6161,272.8593,50.03139,53.75938
924522.3,237.9294,270.468,49.95008,53.51859
924538.8,237.6955,267.9515,49.92231,53.2622
924556.5,237.6223,265.0414,49.91362,52.96182
924574.1,237.8555,262.1623,49.94131,52.66049
924590.6,238.1484,259.0455,49.97604,52.32952
924608.4,238.476,256.2954,50.01483,52.03332
924623.8,238.9628,253.6549,50.07234,51.74518
924640.1,239.3167,250.4276,50.11407,51.38794
924664.4,239.665,247.9446,50.15506,51.10925
924676.1,240.0992,245.363,50.20607,50.81587
924690.4,240.5613,242.6295,50.26024,50.50117
924704.9,241.5681,239.3155,50.37783,50.11393
924722.3,242.2115,236.6488,50.45267,49.7977
924740.6,242.692,234.5327,50.50841,49.5438
924755.6,242.9748,231.9745,50.54116,49.23328
924772.6,243.5728,229.9725,50.61025,48.98753
924788.4,244.0256,227.5425,50.66243,48.68593
924808.3,244.6424,224.9362,50.73333,48.35839
924825.6,244.9413,223.1355,50.7676,48.12961
924839.4,245.3759,220.9275,50.81735,47.84626
924855.9,245.8358,218.5782,50.86988,47.54135
924873,246.2303,216.5045,50.91485,47.26923
924889.3,246.7097,214.6837,50.96937,47.02796
924906.3,246.991,212.8433,51.00131,46.78186
924922.6,247.1503,211.2811,51.01937,46.57118
924939.4,247.218,209.8296,51.02705,46.37395
924958.1,247.3998,208.1839,51.04765,46.1486
924975.3,247.5663,206.6115,51.06649,45.93155
924989.3,247.6492,204.7887,51.07586,45.67778
925005.4,247.6834,202.4557,51.07973,45.3496
925024.3,247.7061,200.2346,51.0823,45.03358
925040.6,247.7227,198.1206,51.08418,44.72953
925057.4,247.6511,196.0398,51.07608,44.42709
925072.5,247.2496,194.2393,51.03063,44.16285
925089.9,247.2926,192.7479,51.03551,43.94215
925106,247.5145,191.2843,51.06062,43.72396
925123.3,247.822,190.0458,51.0954,43.5381
925140.3,248.1159,188.6649,51.12858,43.32948
925157.2,248.4723,187.3792,51.16876,43.13397
925172.9,248.7277,185.9368,51.19751,42.91312
925190.3,248.9366,184.5425,51.221,42.69812
925206.4,249.1828,183.5045,51.24865,42.53708
925223.6,249.3425,182.7965,51.26657,42.42676
925240.9,249.7962,181.8547,51.3174,42.27942
925257.3,250.0544,181.3321,51.34628,42.19735
925272.4,250.3278,180.9608,51.37681,42.13892
925290.4,250.6181,180.9609,51.40919,42.13894
925306.9,251.2253,180.9057,51.47677,42.13023
925323.7,252.0002,180.9799,51.56271,42.14194
925341.8,252.7306,181.0447,51.64344,42.15213
925359.6,253.4158,181.2281,51.71891,42.18099
925374.4,254.2516,181.4169,51.81062,42.21069
925391.9,255.0603,181.6076,51.89901,42.24064
925408.9,255.8779,181.8182,51.988,42.27369
925424.9,256.7579,182.0868,52.08341,42.31579
925442.1,257.6283,182.2478,52.17737,42.34101
925460.2,258.4187,182.2866,52.26236,42.34707
925477.5,259.0514,182.5234,52.33015,42.38411
925492.1,260.1926,182.5885,52.45191,42.39429
925509.3,261.2399,182.6774,52.56306,42.40817
925527.2,262.3738,182.9609,52.68277,42.45242
925541.3,263.8023,183.5203,52.83265,42.53954
925562.4,265.1823,184.236,52.97647,42.65065
925577.3,266.7874,184.9345,53.14255,42.75871
925593.7,268.9632,185.6687,53.36565,42.8719
925611.8,270.8691,186.3473,53.55918,42.97614
925627.8,272.8951,187.0497,53.76297,43.08366
925643.8,275.3803,187.8103,54.01028,43.19966
925661.3,277.3958,188.134,54.20872,43.2489
925676.7,279.3325,188.5424,54.39761,43.31092
925692.9,281.3894,188.5269,54.59636,43.30856
925708.6,283.3906,188.7029,54.78786,43.33525
925725.4,285.2126,188.9455,54.96066,43.37199
925743.5,286.8418,189.2833,55.11393,43.42309
925759.4,288.7153,189.8405,55.28873,43.50718
925777.9,290.636,190.445,55.46635,43.59813
925795.2,292.2144,191.1548,55.61113,43.70459
925810.6,294.064,192.0091,55.77943,43.83222
925829.1,295.7395,192.6531,55.93066,43.92806
925844.8,297.0827,193.0339,56.05104,43.9846
925861.6,298.5841,193.2012,56.18472,44.0094
925879,300.0109,193.309,56.31089,44.02537
925894.3,301.3471,193.8082,56.42831,44.09921
925910.6,302.8866,194.1618,56.56269,44.15142
925928.2,304.3833,194.5864,56.69244,44.21397
925943.7,305.8915,194.7454,56.82228,44.23736
925960.4,307.2902,194.8673,56.94189,44.25528
925979.4,308.5424,195.2124,57.04833,44.30596
925993.5,310.0584,195.8774,57.17637,44.40335
926011.9,311.7622,196.3649,57.31924,44.47455
926026.6,313.8564,196.6363,57.49332,44.51411
926043.4,315.8102,196.8073,57.65426,44.53901
926061.1,317.5551,196.8828,57.79678,44.55
926076.4,319.4261,196.9486,57.94837,44.55956
926093.4,321.1842,196.8645,58.08966,44.54733
926109.8,323.3918,196.4919,58.26549,44.49306
926127,325.6243,196.3327,58.44156,44.46984
926144.1,327.9986,196.3548,58.62688,44.47308
926161.1,330.3938,196.5454,58.81188,44.50086
926177.1,332.6766,196.8091,58.98637,44.53926
926194.9,334.9548,196.8997,59.15876,44.55246
926210.7,337.1951,197.0356,59.32661,44.57222
926227.2,339.4601,197.1491,59.49464,44.58872
926246.9,341.3957,197.2687,59.63693,44.60609
926263,343.7003,197.2679,59.80478,44.60597
926287,346.2089,197.404,59.98558,44.62572
926299.9,347.7056,197.3073,60.09252,44.61169
926310.9,349.7494,197.2781,60.23743,44.60745
926326.3,351.701,197.312,60.37463,44.61237
926343.1,353.3881,197.2982,60.49231,44.61037
926361.1,355.2805,197.299,60.62329,44.61049
926379.3,357.2876,197.5562,60.76107,44.6478
926396.5,359.3529,197.798,60.90162,44.68285
926410.6,361.2446,198.0084,61.02927,44.7133
926427.2,362.8131,198.1552,61.13433,44.73454
926444.1,364.2813,198.217,61.23206,44.74347
926460.2,365.8676,198.3097,61.33696,44.75686
926477.4,367.6004,198.3649,61.45076,44.76482
926493,369.4417,198.4944,61.57077,44.78353
926509.9,371.2613,198.6227,61.68847,44.80203
926526.4,373.032,198.6249,61.80215,44.80235
926543.3,374.7137,198.7491,61.90934,44.82026
926560.1,376.3488,199.2896,62.01285,44.89806
926580.8,377.8536,199.9358,62.10748,44.99081
926597.1,379.2546,200.283,62.19506,45.04051
926612.3,380.602,200.3235,62.27882,45.0463
926630.8,381.314,200.4687,62.32289,45.06706
926644.1,381.596,200.7634,62.34031,45.10913
926660.8,382.05,201.1425,62.36831,45.16319
926677.6,382.6529,201.6903,62.40542,45.24109
926693.3,383.4798,202.4464,62.45617,45.34828
926710.7,384.4149,203.0367,62.51334,45.43169
926727.7,385.279,203.6714,62.56598,45.52109
926743.7,386.037,204.2426,62.612,45.6013
926760.1,386.8814,204.6053,62.6631,45.65213
926776.8,387.5753,204.764,62.70497,45.67433
926793.4,388.2111,205.2658,62.74321,45.74443
926813.3,388.9328,206.3048,62.78652,45.88901
926830.6,389.8024,207.5602,62.83853,46.06271
926847.6,390.8955,208.8902,62.90364,46.24554
926864.3,391.7035,210.1709,62.95159,46.42046
926880.9,392.349,211.622,62.98978,46.61729
926898.6,392.5086,212.9171,62.9992,46.79178
926913.3,392.6206,214.404,63.00582,46.9907
926931.6,392.8342,215.7478,63.01842,47.16923
926950.1,393.0851,216.9805,63.0332,47.33194
926967.1,393.3887,218.3359,63.05108,47.5097
926982.4,393.6581,219.878,63.06692,47.71049
926996.9,393.7466,222.411,63.07212,48.03698
927015.6,393.9019,225.0547,63.08125,48.37338
927033.9,394.1283,227.2752,63.09453,48.65253
927048,394.1824,229.2227,63.0977,48.89486
927065.8,394.0656,230.5485,63.09085,49.05848
927082.2,393.823,231.6192,63.07661,49.18985
927098.9,393.7664,232.6072,63.07329,49.31044
927112.3,393.9278,234.0687,63.08276,49.48777
927130.4,394.1093,235.7086,63.09342,49.68521
927149.7,394.2939,237.5034,63.10424,49.8995
927165.7,394.2211,239.1124,63.09997,50.08999
927181.2,394.168,240.758,63.09686,50.28326
927198.3,394.0331,242.3079,63.08894,50.46386
927215.9,393.6649,243.9591,63.06732,50.65477
927232.3,393.4482,245.5775,63.05458,50.8404
927258.9,393.1434,247.9207,63.03664,51.10655
927268.8,392.9914,249.0558,63.02768,51.23439
927281.6,392.7028,250.7623,63.01067,51.42526
927298.6,392.314,252.6146,62.98771,51.63065
927313.3,392.0212,254.6254,62.9704,51.85152
927330.9,391.8602,256.7639,62.96087,52.08406
927349.5,391.7377,258.9099,62.95361,52.31501
927365.4,391.6564,260.9816,62.9488,52.5357
927381.6,391.4216,263.2705,62.93488,52.77697
927398,391.3837,265.3361,62.93263,52.99244
927414.1,391.5248,267.1804,62.94099,53.18301
927435.4,391.8145,269.184,62.95816,53.38816
927451.3,391.8789,270.8188,62.96198,53.55409
927466,391.8665,272.4131,62.96124,53.71466
927481.3,391.9813,274.4878,62.96803,53.9218
927497.5,391.9615,276.7242,62.96686,54.14281
927514.1,391.9117,278.8823,62.96391,54.35386
927530.9,391.6344,280.8309,62.94749,54.54258
927548.3,391.0935,282.1738,62.91541,54.67163
927566,390.7494,282.9997,62.89495,54.7506
927581.8,390.3842,283.9525,62.87322,54.84132
927598.3,390.0789,284.7835,62.85503,54.9201
927613.1,389.6826,285.6492,62.83138,55.00185
927631.5,389.1964,286.3564,62.8023,55.06839
927648.1,388.4795,286.8471,62.75933,55.11442
927664.7,387.8802,287.5038,62.72332,55.17587
927681,387.3031,288.1966,62.68856,55.24048
927697.8,386.5287,289.1062,62.64178,55.325
927715.8,385.7323,289.9969,62.59352,55.40743
927736.8,385.1736,290.5872,62.55957,55.46186
927748.7,384.4189,291.0486,62.51358,55.5043
927766.4,383.8569,291.2928,62.47925,55.52673
927782.5,383.2928,291.5512,62.4447,55.55043
927797.2,382.7093,291.8373,62.40889,55.57664
927815.7,382.1848,292.0983,62.37662,55.60051
927830.8,381.6956,292.0008,62.34646,55.5916
927851,381.201,292.0198,62.31591,55.59334
927867.6,380.4785,292.1779,62.27117,55.6078
927882.6,379.8224,292.131,62.23042,55.60351
927899.6,379.0772,291.992,62.18401,55.5908
927916.4,378.4056,292.0144,62.14205,55.59285
927932.9,377.9124,292.0573,62.11117,55.59677
927951.3,377.6183,292.2471,62.09272,55.61412
927969,377.4299,292.3921,62.08089,55.62737
927983.1,377.2069,292.3893,62.06688,55.62711
928000.6,376.9141,292.0777,62.04847,55.59863
928016.3,376.5849,291.9062,62.02773,55.58294
928032.8,376.3174,292.0495,62.01086,55.59605
928051.4,376.1557,292.2565,62.00066,55.61498
928068.6,376.196,292.289,62.0032,55.61795
928084.3,376.459,292.1787,62.01979,55.60787
928099.8,376.5745,291.9772,62.02707,55.58944
928115.9,376.6708,291.7501,62.03315,55.56865
928133.3,376.9016,291.4493,62.04768,55.54108
928151.4,377.1298,291.2568,62.06204,55.52343
928165.3,377.4635,291.032,62.08301,55.50278
928183.3,377.9434,290.8408,62.11311,55.4852
928200.9,378.5332,290.7942,62.15003,55.48091
928217.6,379.185,290.6931,62.19073,55.47161
928231.6,379.8507,290.5002,62.23218,55.45385
928248.5,380.5257,290.141,62.27409,55.42073
928267.9,381.1404,290.0055,62.31216,55.40821
928281.8,381.8117,289.8912,62.35362,55.39766
928300.4,382.7687,290.0317,62.41254,55.41064
928317.2,383.7162,290.0271,62.47064,55.41022
928331.1,384.792,289.949,62.53633,55.403
928350.3,385.8611,289.8204,62.60134,55.39112
928367.6,386.5217,289.6942,62.64136,55.37945
928385,387.0906,289.6026,62.67574,55.37098
928401.4,387.6326,289.7585,62.70842,55.3854
928419.3,388.117,289.9125,62.73756,55.39963
928435.9,388.7106,290.1432,62.7732,55.42093
928449.9,389.2582,290.1595,62.806,55.42244
928467.4,389.642,290.1868,62.82895,55.42495
928485.3,389.9843,290.0939,62.84938,55.41638
928502.2,390.2782,289.9843,62.8669,55.40626
928518.9,390.3818,289.9852,62.87308,55.40635
928536.8,390.4637,290.1078,62.87795,55.41766
928551.9,390.591,290.0645,62.88553,55.41367
928568.7,390.7185,289.6755,62.89312,55.37772
928584.7,390.8528,289.1549,62.9011,55.32952
928599.8,391.0791,288.5258,62.91455,55.27112
928619.1,391.1956,287.8624,62.92147,55.20934
928638.3,391.138,287.4776,62.91805,55.17342
928652.7,391.1865,287.0497,62.92092,55.13339
928668.8,391.4119,286.4369,62.9343,55.07594
928686.2,391.5233,285.8258,62.94091,55.01848
928702.4,391.6085,285.131,62.94595,54.95295
928720.1,391.7292,284.6894,62.95311,54.91119
928735.9,391.7596,284.2559,62.95491,54.87011
928750.4,391.6912,283.6015,62.95086,54.80794
928768.6,391.6852,282.9613,62.9505,54.74693
928787.3,391.6339,282.4362,62.94746,54.69675
928801.6,391.4781,282.105,62.93822,54.66504
928819.3,391.5223,281.7365,62.94085,54.6297
928835.6,391.7042,281.2672,62.95163,54.5846
928852.8,391.9428,280.8053,62.96576,54.54012
928872.4,392.1245,280.4403,62.97651,54.50489
928889.5,392.2349,280.1888,62.98303,54.48058
928903.7,392.3933,279.8416,62.99239,54.44699
928919.3,392.601,279.4249,63.00466,54.40659
928934.9,392.773,279.1636,63.01481,54.38121
928952.4,392.8473,279.0676,63.01919,54.37188
928970.3,392.9276,279.0113,63.02393,54.36641
928989.6,392.8417,279.0508,63.01886,54.37024
929002.5,392.5783,279.0217,63.00332,54.36742
929019.3,392.3964,279.3558,62.99258,54.39988
929037.1,392.3172,279.7496,62.9879,54.43807
929051.7,392.2441,279.5491,62.98358,54.41864
929068.1,392.3767,279.202,62.99141,54.38494
929084.4,392.5607,279.1101,63.00228,54.37601
929100.6,392.7226,279.1773,63.01183,54.38254
929118.9,392.8433,279.0916,63.01896,54.37421
929133.5,392.893,278.6678,63.02188,54.33298
929150.5,393.0447,278.2894,63.03082,54.29609
929167.8,392.9941,278.3288,63.02784,54.29993
929183.9,392.7881,278.454,63.01569,54.31215
929202.7,392.4938,278.2962,62.99833,54.29676
929218.3,392.1816,278.1375,62.97988,54.28126
929234.8,391.7469,277.8165,62.95415,54.2499
929251.3,391.3377,277.5168,62.9299,54.22057
929267.7,391.0719,277.1159,62.91412,54.18127
929285.1,390.306,276.8842,62.86856,54.15853
929301.5,389.7291,276.6136,62.83415,54.13194
929318.7,389.1736,276.2256,62.80094,54.09373
929335.6,388.4049,275.8884,62.75486,54.06048
929352.2,387.4461,275.1756,62.69718,53.99002
929368.6,386.4919,274.5862,62.63956,53.93158
929386.8,385.0357,273.9483,62.55118,53.86814
929404.2,383.9464,273.3016,62.48472,53.80363
929418.4,382.7833,272.5083,62.41344,53.72422
929434.6,381.2151,272,62.31678,53.67318
929451.1,378.9388,271.5592,62.17537,53.62881
929468.1,376.6691,271.0348,62.03304,53.57591
929484.6,374.0705,270.3099,61.86843,53.50257
929501.4,371.6786,269.1535,61.71534,53.38505
929519.4,369.4087,267.8348,61.56863,53.25024
929534.4,366.567,266.1802,61.38299,53.07987
929552.1,364.2122,265.1264,61.22747,52.97066
929568.3,362.0374,264.462,61.08246,52.90152
929585.1,360.1632,264.5216,60.95642,52.90773
929601.8,358.5957,264.3921,60.85023,52.89423
929617.3,356.8199,263.8773,60.72907,52.84049
929634.1,354.6584,262.6392,60.58035,52.71069
929650.8,352.097,261.1946,60.40233,52.55827
929667.4,348.742,259.2781,60.16616,52.35439
929688.5,346.2235,258.0307,59.98663,52.22068
929705,344.0567,257.5079,59.83058,52.16439
929722.3,342.4847,257.3406,59.71645,52.14635
929735.3,341.3088,257.0334,59.63057,52.11319
929750.8,339.8806,256.07,59.52566,52.00887
929767.4,337.917,254.0658,59.38035,51.79026
929788.2,335.9706,251.5832,59.23507,51.5165
929805.6,334.0045,250.163,59.08707,51.35841
929817.8,331.4394,249.5694,58.89202,51.29201
929834.4,328.5483,248.9939,58.66952,51.22744
929854.9,326.9434,248.0003,58.54476,51.11553
929873.1,325.056,246.1695,58.3969,50.90792
929884.7,322.5564,243.894,58.19915,50.64728
929902.9,320.3249,242.4862,58.02074,50.48455
929920.7,317.8568,242.0692,57.82132,50.43614
929934.6,315.2665,242.0849,57.60962,50.43797
929951.6,313.0881,241.512,57.42965,50.3713
929968.1,310.511,240.6528,57.21443,50.27095
929984.6,307.6192,239.5275,56.96991,50.13889
930001.7,304.5117,237.6347,56.70353,49.9151
930023.1,302.745,236.5413,56.55037,49.78487
930035.2,300.7736,235.668,56.378,49.68035
930056.2,299.2196,235.0363,56.24102,49.60447
930071.8,298.3271,234.412,56.1619,49.52924
930087.4,297.4147,233.4935,56.08068,49.41813
930102,296.5481,232.1595,56.00322,49.25586
930118.8,295.7601,231.0653,55.93251,49.12197
930134.3,294.4692,230.3979,55.81611,49.03994
930152,293.0529,230.0932,55.68761,49.0024
930169.6,291.9268,229.8002,55.58484,48.96626
930185.1,290.9536,229.3435,55.49556,48.90981
930205,290.051,228.8044,55.41242,48.84299
