Time Stamp(ms),Intersection,,Angle,
,x,y,x,y
854318.3,320.1185,244.6391,58.00415,50.73294
854340.2,319.9793,244.6229,57.99295,50.73109
854351.4,319.8422,244.7072,57.98191,50.74076
854366.6,319.8183,244.8099,57.97999,50.75254
854383.8,319.8442,244.8797,57.98207,50.76054
854401.6,319.9862,244.9258,57.99351,50.76582
854418.3,320.1045,244.9272,58.00303,50.76599
854434,320.0419,244.6734,57.99799,50.73688
854454.3,319.9086,244.3631,57.98726,50.70125
854468.7,319.7884,244.234,57.97758,50.68641
854485.1,319.6964,244.1095,57.97017,50.67208
854501.1,319.6074,244.0835,57.96299,50.66909
854518.9,319.5693,244.0826,57.95992,50.66898
854533.4,319.4737,244.1052,57.95221,50.67159
854551.4,319.1914,244.0477,57.92943,50.66497
854570,318.8757,244.0635,57.90392,50.66679
854586.7,318.6812,244.0244,57.88818,50.66229
854601.1,318.4808,243.9511,57.87194,50.65385
854618.2,318.314,243.9533,57.85842,50.65411
854632.9,318.0102,244.1233,57.83377,50.67367
854650.3,317.6231,244.215,57.80232,50.68422
854668.7,317.3269,244.2695,57.77821,50.69048
854685.4,317.0563,244.2751,57.75616,50.69114
854701.3,316.7523,244.2748,57.73135,50.6911
854718,316.4556,244.1839,57.70711,50.68064
854733.5,316.0914,244.0964,57.6773,50.67058
854751.4,315.8502,244.0703,57.65754,50.66758
854767.6,315.4497,244.3031,57.62467,50.69435
854786,315.0631,244.473,57.59289,50.71388
854802.7,314.7076,244.705,57.56361,50.74051
854818,314.2514,245.0382,57.52598,50.7787
854834.5,313.712,245.3802,57.48138,50.81785
854851.8,312.9998,245.9705,57.42232,50.88524
854868.3,312.0679,246.4594,57.34475,50.94092
854888.6,310.8417,247.0807,57.24219,51.01148
854904.6,309.5502,247.8761,57.13354,51.10152
854920.6,307.9937,248.6885,57.00175,51.1931
854936.1,306.399,249.7165,56.86576,51.30848
854952.1,304.5306,250.8448,56.70515,51.43444
854971.3,302.9314,251.8869,56.56659,51.55018
854986.8,300.9694,253.1344,56.39519,51.68795
855002.5,299.1747,254.4788,56.23705,51.83549
855021.6,297.5894,255.7347,56.09625,51.97244
855036.1,296.1458,257.3196,55.96714,52.14409
855052.2,294.5683,258.9561,55.82508,52.31996
855070.8,292.7128,260.7473,55.65663,52.51086
855090.1,291.1987,262.0569,55.51809,52.64938
855106.2,289.8235,263.0405,55.3914,52.75285
855120.4,288.2885,264.0431,55.24903,52.85781
855137.7,286.9204,264.9189,55.12129,52.9491
855153.3,285.4021,265.9575,54.97854,53.05684
855169.9,283.6899,267.2726,54.81635,53.1925
855188.3,282.163,268.4229,54.6706,53.31047
855203.9,280.2604,269.8466,54.48751,53.45557
855221.6,278.4164,271.3508,54.30848,53.6078
855238.9,276.7334,272.7499,54.14371,53.74843
855253.3,274.6583,274.745,53.93874,53.94733
855270.9,272.3511,276.8791,53.70845,54.15803
855288.1,270.019,278.6362,53.47308,54.32991
855303.3,267.344,280.4918,53.19984,54.50987
855320.6,264.9038,282.2398,52.94753,54.67795
855336,262.7184,283.6927,52.71902,54.81662
855351.5,260.3563,285.5237,52.46932,54.99002
855373.8,258.4353,287.4063,52.26414,55.16676
855389.1,256.9246,288.9006,52.10143,55.30593
855403.1,255.0355,290.8051,51.8963,55.48191
855422.2,253.6484,292.3244,51.74446,55.62119
855437.4,252.1431,293.8289,51.57853,55.75813
855453.4,250.8793,294.9776,51.43828,55.86204
855468.1,249.5907,295.8605,51.29439,55.94153
855485.6,248.2811,296.717,51.14722,56.01834
855504.1,247.1268,297.4686,51.01672,56.08549
855520.7,245.9667,298.3798,50.88481,56.16658
855538.2,244.9494,299.0268,50.76853,56.22395
855554.3,243.7774,299.8268,50.63385,56.29466
855571.1,242.5296,300.3117,50.48959,56.33739
855586.8,241.0634,300.8774,50.31895,56.38712
855603.3,239.4688,301.4735,50.13197,56.43938
855619.9,237.8347,302.0091,49.93884,56.48621
855638.5,236.467,302.2081,49.77599,56.50358
855654.8,235.3211,301.7669,49.63871,56.46505
855673.3,234.272,301.2295,49.51233,56.418
855687.1,233.2989,300.5293,49.39453,56.35653
855705.6,232.3296,300.1606,49.27662,56.32408
855721,231.429,299.5113,49.16656,56.2668
855740.6,230.913,298.7273,49.10328,56.19742
855757.3,230.4054,298.4379,49.04087,56.17174
855772.4,229.98,298.0658,48.98845,56.13867
855788.2,229.5518,297.4158,48.93557,56.08078
855807,229.0409,296.7322,48.87232,56.0197
855824.4,228.5549,295.9809,48.81202,55.95234
855837,228.0778,294.9486,48.75267,55.85942
855854,227.474,294.2564,48.67738,55.79686
855871.1,227.1066,293.7719,48.63144,55.75296
855886.8,226.7679,292.8193,48.58903,55.66633
855903.4,226.3177,291.8325,48.53253,55.57619
855920.8,225.8144,290.9564,48.46923,55.49583
855937.2,225.4892,290.1901,48.42825,55.42525
855952.4,225.3832,289.4327,48.41487,55.35526
855969.7,225.1402,288.3941,48.38418,55.25887
855988.3,225.0235,286.9456,48.36944,55.12365
856005.4,224.8868,285.1425,48.35215,54.95403
856020.9,224.8555,283.0022,48.34818,54.75084
856037.8,224.7502,280.9954,48.33485,54.55844
856054,224.6981,278.4513,48.32826,54.31188
856073.1,224.8012,276.4291,48.34132,54.11378
856088.6,225.1996,274.3972,48.39169,53.9128
856103.9,225.5837,272.2169,48.44016,53.69497
856121.5,226.0292,270.0782,48.49627,53.47908
856138.5,226.5757,267.5968,48.56492,53.22581
856154.6,227.1351,264.9998,48.63501,52.9575
856170.6,227.9675,262.4612,48.73893,52.69196
856189.6,228.726,260.6083,48.83327,52.4961
856205.7,229.5285,258.5725,48.93269,52.27886
856223.3,230.5,256.2996,49.05252,52.03378
856238.3,231.2046,254.1777,49.13905,51.80252
856252.9,232.0352,251.8418,49.2407,51.54518
856270.6,232.8315,249.1325,49.33774,51.243
856289.1,233.5767,246.6866,49.42821,50.96675
856305.9,234.1267,244.7243,49.49478,50.74272
856322,234.556,242.4872,49.54661,50.48468
856338.3,234.8696,240.6242,49.5844,50.2676
856351.7,235.1414,238.6252,49.6171,50.03247
856371.9,235.3901,236.6045,49.647,49.79242
856387.8,235.7107,234.6496,49.68547,49.5579
856404.2,236.0518,232.8745,49.72634,49.34297
856420.8,236.4375,231.2895,49.77247,49.14947
856437.9,236.9301,229.9047,49.83126,48.97916
856453.9,237.6841,228.6073,49.92097,48.81853
856471.6,238.1716,227.235,49.97879,48.6475
856488.2,238.513,225.9553,50.01921,48.48697
856504.6,238.773,224.6211,50.04994,48.31851
856523.1,239.0923,223.1004,50.08762,48.12513
856540.6,239.2897,221.5581,50.11089,47.9275
856557.2,239.5141,219.9652,50.13731,47.72181
856572.8,239.7065,218.425,50.15995,47.52134
856590.7,239.9798,216.9271,50.19205,47.32491
856608.6,240.1697,215.4619,50.21435,47.13135
856623.9,240.3648,214.046,50.23722,46.94294
856640.8,240.4812,212.8383,50.25085,46.78119
856656.3,240.6136,211.8542,50.26637,46.64867
856672.8,240.9858,210.8522,50.30989,46.51306
856691.1,241.2124,210.212,50.33635,46.42606
856708.9,241.2312,209.7082,50.33855,46.35739
856725,241.2122,209.006,50.33633,46.2614
856742.9,241.18,208.2282,50.33257,46.15469
856758.1,241.3262,207.3062,50.34964,46.02765
856773.8,241.5745,206.408,50.37857,45.90332
856791.3,241.9651,205.3023,50.42404,45.74952
856805.7,242.2841,204.4308,50.46111,45.62769
856824.1,242.4517,203.5074,50.48056,45.49802
856842,242.639,202.4108,50.50227,45.34325
856859.1,242.8059,201.5841,50.52161,45.22601
856876.3,243.0585,200.6355,50.55083,45.09088
856891.9,243.2135,199.8446,50.56876,44.97774
856906,243.4142,199.4726,50.59195,44.92435
856924.1,243.7499,199.2264,50.63068,44.88898
856941.4,244.134,198.8132,50.6749,44.8295
856957.2,244.4651,198.3919,50.71297,44.76873
856973.4,244.6584,198.2313,50.73515,44.74552
856991.9,244.8874,197.762,50.76143,44.67763
857011.2,245.1484,197.4435,50.79132,44.63145
857025,245.4706,197.2482,50.82817,44.60312
857042.2,245.7169,197.0154,50.85631,44.56927
857058.1,245.9283,196.6759,50.88044,44.51988
857073.7,246.0415,196.5463,50.89334,44.50099
857092.4,246.2726,196.2103,50.91967,44.45199
857106.6,246.58,196.1151,50.95464,44.43808
857126.6,246.807,196.0653,50.98043,44.43081
857143.1,246.9301,196.0121,50.9944,44.42305
857156.3,247.094,196.2072,51.01299,44.45154
857171.1,247.4232,196.3448,51.0503,44.47162
857191.4,247.896,196.5664,51.10376,44.50393
857208.3,248.3146,196.7551,51.15099,44.53141
857223.9,248.5189,196.7852,51.17401,44.53579
857240.9,248.7205,197.0987,51.1967,44.58139
857257.3,248.9321,197.3504,51.22049,44.61795
857273.4,249.1322,197.9859,51.24297,44.71005
857291.3,249.3753,198.9049,51.27024,44.8427
857308.3,249.8668,199.9534,51.3253,44.99333
857327.7,250.2474,200.9055,51.36783,45.12941
857343.6,250.5499,201.774,51.40158,45.25298
857357.6,250.7539,202.9598,51.42432,45.42083
857378.3,250.8184,204.2992,51.43151,45.60924
857392,251.0387,205.7332,51.45602,45.80956
857406.7,251.5688,207.9174,51.51491,46.11193
857423.9,252.1931,209.4805,51.58406,46.32631
857441.7,252.7201,211.0061,51.64228,46.53392
857456.6,253.1505,212.6494,51.68972,46.75581
857473.3,253.5739,214.2466,51.73629,46.96971
857491.9,254.1724,216.1042,51.80195,47.21638
857508.9,254.883,218.1516,51.87966,47.4856
857524.3,255.9062,220.3577,51.99108,47.77263
857540.4,257.2092,222.979,52.13218,48.10963
857559.8,258.2238,224.9514,52.24143,48.36031
857572.7,259.5668,227.3293,52.38522,48.65929
857590.9,260.9087,229.6632,52.52797,48.94934
857607.6,262.4945,232.1893,52.69547,49.2595
857624.4,264.5499,235.1136,52.91068,49.61376
857641.6,266.3359,237.6836,53.09596,49.92091
857658.9,267.904,239.9169,53.25734,50.18467
857673.8,269.8796,242.9429,53.45892,50.53746
857692.1,271.6458,245.5208,53.63753,50.83391
857707.4,273.2823,248.1439,53.8017,51.13174
857725.9,274.6314,250.2312,53.93607,51.36602
857743.8,276.265,252.698,54.09763,51.63985
857759.6,278.1154,254.6894,54.2791,51.85851
857775.3,280.3635,256.7897,54.49747,52.08685
857792.3,282.769,259.0039,54.72857,52.32507
857809.9,284.5569,261.2828,54.89864,52.5676
857827,285.9784,262.9683,55.03285,52.74527
857842.1,287.5976,264.9643,55.18463,52.95382
857860.6,289.4141,266.9069,55.35353,53.15486
857877.5,291.7124,268.0884,55.5652,53.27623
857891.2,292.3159,271.2598,55.62041,53.59863
857908.2,294.9783,272.94,55.8621,53.76747
857924.3,297.0728,274.2509,56.05016,53.89825
857941.2,299.019,276.3398,56.22326,54.10498
857960.6,300.9505,277.7663,56.39354,54.24499
857980.4,302.8588,279.1024,56.56028,54.37526
857993.3,304.6399,280.4174,56.71458,54.50268
858009.2,306.4397,282.2346,56.86925,54.67746
858026.6,307.9143,283.9031,56.99501,54.83662
858041.6,309.4139,285.9638,57.12204,55.03148
858059.6,310.7126,287.6634,57.23136,55.19077
858073.1,312.332,289.0399,57.36677,55.31886
858090.7,314.0057,289.8925,57.50567,55.39778
858107.8,315.6981,290.7845,57.64506,55.48001
858124.4,317.3034,291.6033,57.7763,55.55521
858141.6,319.0353,292.3549,57.91682,55.62396
858158.1,320.653,293.4366,58.04709,55.72251
858174.2,322.1031,294.5542,58.16306,55.8238
858191.9,323.4651,295.4081,58.2713,55.90084
858208.8,324.7306,295.7978,58.37128,55.9359
858227.3,325.9512,296.0812,58.46719,55.96135
858243.8,327.1438,296.4282,58.56039,55.99248
858260,328.6449,296.7422,58.677,56.02059
858277.3,330.2021,297.0218,58.79715,56.04559
858293.9,331.9038,297.4266,58.9275,56.08174
858313.1,333.3557,297.7932,59.03794,56.11441
858326.8,335.0066,297.949,59.16266,56.12828
858344.1,336.8621,298.1059,59.30177,56.14224
858360.7,338.767,298.0266,59.44341,56.13519
858376.6,340.9197,297.7533,59.60205,56.11086
858394.4,342.7776,297.7845,59.73777,56.11364
858410.6,344.6569,297.5007,59.87395,56.08835
858427.8,346.328,297.42,59.99411,56.08115
858444.8,347.8992,297.2277,60.1063,56.06399
858460.8,349.4628,297.0473,60.21719,56.04787
858479.8,350.7365,296.8271,60.30697,56.02819
858494.8,351.9143,296.6952,60.38956,56.01639
858512,352.9104,296.5944,60.45908,56.00736
858529.4,353.6873,296.2458,60.51309,55.97612
858553.2,354.6286,295.8245,60.57829,55.9383
858570.2,355.0675,295.3471,60.6086,55.89534
858581.4,355.5091,294.9411,60.63905,55.85875
858597.5,355.9487,294.2106,60.66929,55.79272
858612.8,356.6637,293.5074,60.71837,55.72895
858628.3,357.3502,292.8977,60.76535,55.67348
858641.9,358.2279,292.203,60.82521,55.61009
858660.8,359.1228,291.3744,60.88601,55.53421
858677.9,359.94,290.5859,60.94135,55.46174
858696.3,360.5671,289.8317,60.98367,55.39216
858712.4,361.2718,289.169,61.0311,55.33083
858728.2,362.1029,288.4359,61.08685,55.26276
858747.9,362.8647,287.736,61.13778,55.19754
858761.7,363.8448,286.9189,61.20307,55.12115
858777.8,364.8091,286.2794,61.26704,55.06115
858791.2,365.9721,285.5268,61.34385,54.99031
858808.4,367.1707,284.7844,61.42261,54.92018
858825.1,368.3195,284.105,61.49773,54.85579
858842.4,369.2685,283.4892,61.55952,54.79725
858859.1,370.1561,282.9787,61.61709,54.74859
858874.5,371.1129,282.2531,61.67891,54.67923
858891.8,372.1911,281.2974,61.74827,54.58751
858908.9,373.2663,280.2946,61.81713,54.49082
858926.1,374.2393,279.4359,61.87917,54.40765
858943.1,375.0139,278.5319,61.92839,54.31974
858960,375.7094,276.9439,61.97245,54.16439
858976.5,376.2125,275.5927,62.00424,54.03128
858992.1,376.8876,274.2911,62.0468,53.90225
859010,377.4572,272.9942,62.08261,53.77289
859026.8,378.0785,271.7408,62.12158,53.6471
859043.6,378.6415,270.6351,62.1568,53.53551
859061.9,379.132,269.5495,62.18742,53.42537
859080.3,379.5144,268.6674,62.21125,53.33546
859094.1,379.7342,267.8138,62.22493,53.24808
859110,379.821,267.2759,62.23034,53.19284
859126.3,379.8766,266.6205,62.23379,53.12534
859142.7,380.1763,265.8207,62.25241,53.04268
859160.6,380.3682,265.0627,62.26432,52.96404
859176.9,380.1983,264.2111,62.25378,52.87535
859196.2,379.9919,263.1468,62.24096,52.764
859210.3,379.8253,261.8294,62.2306,52.62538
859227.1,379.8222,260.5885,62.23041,52.49399
859243.7,379.9696,259.714,62.23957,52.40093
859260.3,380.2689,258.9428,62.25816,52.31853
859277.9,380.5294,258.1774,62.27432,52.23644
859293.9,380.6905,257.2455,62.28431,52.1361
859311.5,380.6022,256.2092,62.27884,52.02398
859327.8,380.4401,254.9239,62.26878,51.88412
859344.6,380.3617,253.7013,62.26392,51.75028
859361.1,380.6295,252.1018,62.28053,51.57396
859378.4,381.5234,250.5285,62.33583,51.3992
859393.8,383.0379,248.7576,62.42907,51.20088
859410.3,383.5414,247.6187,62.45993,51.07242
859427.4,383.2122,246.4832,62.43976,50.94363
859444.5,382.5421,245.0872,62.39861,50.78432
859461.7,382.4666,243.0969,62.39396,50.55528
859480.5,381.8821,241.296,62.35797,50.34611
859496.1,381.8023,239.8701,62.35305,50.17917
859510.7,382.1164,238.2288,62.37241,49.98557
859528.6,381.8047,237.3411,62.3532,49.88019
859546.6,381.4314,236.6862,62.33015,49.80217
859561.9,381.6812,235.4651,62.34557,49.656
859579.8,381.436,234.5321,62.33043,49.54372
859596.8,380.9063,233.6381,62.29767,49.43566
859612.7,380.5536,233.1553,62.27583,49.3771
859631.8,380.2777,232.6943,62.25871,49.32104
859647.3,380.0966,232.1324,62.24746,49.25257
859666.1,379.8943,231.8625,62.23489,49.2196
859681.8,379.7162,231.3327,62.22381,49.15476
859696.1,379.1632,230.9128,62.18937,49.10324
859711.9,378.7142,230.1903,62.16134,49.01438
859729.4,378.4213,229.3139,62.14303,48.90614
859746.1,378.6084,228.5468,62.15474,48.81102
859761.7,378.6579,227.9242,62.15783,48.73355
859777.8,378.7675,226.9578,62.16467,48.61282
859794.3,378.7069,226.2107,62.16088,48.51909
859811.8,378.395,225.421,62.14139,48.41963
859829.4,377.9954,224.5321,62.11637,48.30722
859847.8,377.6849,223.738,62.0969,48.20639
859864.2,377.3993,223.069,62.07897,48.12112
859880.7,377.3903,222.2288,62.07841,48.01363
859898.7,377.4521,221.4456,62.08229,47.91302
859913.3,377.479,220.2187,62.08398,47.75465
859929.6,377.4294,218.7017,62.08087,47.55746
859946.9,377.2138,217.2424,62.06731,47.36639
859963.5,376.6924,216.0289,62.03451,47.20642
859979.7,376.1389,214.8604,61.99959,47.05146
859996,375.8927,213.6634,61.98404,46.89181
860013.4,375.9956,213.1192,61.99055,46.8189
860029.9,376.01,212.5191,61.99146,46.73828
860046.8,375.8575,212.2294,61.98182,46.69927
860064.9,375.4416,211.8111,61.95551,46.64285
860081.7,374.9243,211.3219,61.92271,46.5767
860100.3,374.4735,210.9843,61.89408,46.53097
860116.1,374.2923,210.7785,61.88255,46.50305
860130.1,374.221,210.5195,61.87801,46.46787
860147.3,374.2173,210.281,61.87778,46.43544
860164.6,374.1591,210.2869,61.87407,46.43624
860181.1,374.0987,210.417,61.87022,46.45395
860197.8,374.0211,210.478,61.86528,46.46223
860213.6,373.8929,210.5472,61.85712,46.47164
860233,373.7686,210.7126,61.84919,46.4941
860248.4,373.6348,210.823,61.84066,46.50909
860262.9,373.5637,210.6947,61.83612,46.49168
860284.9,373.5624,210.4472,61.83604,46.45804
860305.9,373.499,210.3336,61.83199,46.4426
860323.1,373.3997,209.8425,61.82565,46.37572
860338.6,373.2535,209.6114,61.81631,46.34417
860349.8,373.0734,209.3705,61.8048,46.31128
860364.3,372.9826,209.2078,61.79899,46.28903
860381.9,373.1222,208.9705,61.80792,46.25655
860398.1,373.1239,208.918,61.80802,46.24936
860412.4,373.0963,208.6303,61.80626,46.20992
860428.9,373.0164,208.0744,61.80115,46.13354
860445.7,372.8013,207.2905,61.78738,46.02549
860463.5,372.4577,206.7558,61.76537,45.95153
860480,371.9837,206.0822,61.73495,45.8581
860497.4,371.7057,205.4619,61.71708,45.77178
860512.7,371.3936,204.7574,61.69699,45.67341
860531.3,370.8098,204.0506,61.65935,45.57437
860549.1,370.2755,203.4776,61.62482,45.49383
860563.4,369.7556,202.915,61.59114,45.41452
860580.4,369.2435,202.254,61.5579,45.32104
860598.2,368.916,201.7209,61.5366,45.24545
860612.7,368.6813,200.8924,61.52132,45.12754
860630.9,368.4158,200.2123,61.50402,45.03039
860646.9,368.1933,199.3994,61.4895,44.91384
860663.9,367.904,198.937,61.47061,44.84734
860680.8,367.3816,198.6678,61.43644,44.80855
860698.5,366.8065,198.2955,61.39872,44.75481
860713.4,365.9496,198.3318,61.34237,44.76005
860730.4,365.0986,198.3503,61.28619,44.76272
860747.8,364.2227,198.4711,61.22817,44.78016
860766.1,363.478,198.5992,61.17867,44.79865
860781.9,362.6119,198.5428,61.1209,44.79052
860797.3,361.4453,198.7848,61.04275,44.82541
860814.8,360.4366,199.2092,60.97487,44.8865
860830.9,359.5499,199.9249,60.91496,44.98925
860847.5,358.7951,201.0612,60.86378,45.15161
860865.1,357.9878,202.2828,60.80886,45.32513
860880.4,357.0347,203.0023,60.74377,45.42684
860896.9,356.0043,203.0985,60.67311,45.4404
860913,355.1352,203.5426,60.61328,45.50297
860931.1,354.7159,204.1759,60.58432,45.59195
860948.3,354.6717,204.7354,60.58127,45.67032
860963.4,354.8834,205.4754,60.5959,45.77365
860981.4,355.0381,206.4349,60.60658,45.90707
860998.1,355.3434,207.5122,60.62763,46.05609
861013.3,356.0811,208.2413,60.6784,46.15649
861030.8,356.688,208.9055,60.72003,46.24764
861048,357.4546,209.6415,60.77248,46.34829
861064.3,358.4103,210.2956,60.83763,46.43743
861081.8,359.2339,210.8994,60.89355,46.51945
861099,360.1392,211.5354,60.9548,46.60559
861113.8,361.2715,212.655,61.03107,46.75655
861131,362.3294,213.9121,61.10201,46.92506
861147.4,363.3913,215.1635,61.17289,47.09175
861163.5,364.2382,216.1961,61.22919,47.22852
861180.5,364.8405,217.2872,61.26912,47.37227
861196.4,365.1007,218.1971,61.28633,47.49156
861213.6,365.4367,219.1234,61.30854,47.61242
861229.6,365.8217,220.1361,61.33394,47.74395
861246.2,366.3254,221.169,61.3671,47.87741
861264.3,366.9297,222.1897,61.40681,48.00862
861283,367.5978,223.1536,61.45059,48.13191
861301.6,367.9728,223.9645,61.47511,48.23519
861317.3,368.0963,224.8694,61.48317,48.34995
861333,368.0585,225.8656,61.48071,48.47568
861350.1,368.0329,226.8102,61.47903,48.59433
861367.1,367.7693,228.0036,61.4618,48.74344
861383.7,367.6851,229.075,61.4563,48.87655
861402.9,367.4857,229.7576,61.44325,48.961
861413.3,367.201,230.3822,61.4246,49.03801
861430.4,366.7032,230.5668,61.39194,49.06073
861447.2,365.9155,230.6689,61.34012,49.07329
861463.6,365.126,231.0348,61.28801,49.11823
861483.9,364.3405,231.4929,61.23598,49.17438
861501.1,363.4658,232.0408,61.17785,49.24138
861513.3,362.6538,232.7673,61.1237,49.32993
861530.6,361.8399,233.6463,61.06923,49.43665
861547.4,360.7874,234.7086,60.99851,49.56501
861565,359.6929,235.4822,60.92463,49.65805
861580.8,358.5677,236.0933,60.84832,49.73131
861599.1,357.0783,236.4129,60.74676,49.76954
861615.5,355.5096,236.87,60.63908,49.82409
861633.7,353.6512,237.3004,60.51059,49.87536
861652.3,351.4893,238.1234,60.3598,49.97307
861667.6,349.6417,239.0669,60.22983,50.08462
861684.1,347.7401,240.2029,60.09497,50.21824
861699.9,345.8374,241.4411,59.95893,50.36303
861715.1,343.4713,242.7608,59.78817,50.51638
861732.7,340.9999,244.0153,59.60793,50.66124
861747.9,338.5165,245.0941,59.42485,50.78511
861766.9,335.6891,246.2776,59.21397,50.92024
861783.6,333.2373,247.4931,59.02896,51.05821
861801.9,330.5889,248.6174,58.82686,51.1851
