Time Stamp(ms),Intersection,,Angle,
,x,y,x,y
944246,316.5209,237.8957,57.71244,49.94608
944264.3,315.8994,237.8527,57.66157,49.94098
944283.8,315.3011,237.7496,57.61246,49.92874
944298.3,314.9737,237.6027,57.58553,49.9113
944312.7,314.4743,237.3444,57.54438,49.88058
944331.3,314.0049,236.8777,57.5056,49.825
944348.8,313.5846,236.7305,57.47082,49.80745
944365.1,312.9388,236.5007,57.41725,49.78003
944383.1,312.459,236.4911,57.37734,49.77888
944398.3,311.9365,236.4729,57.33379,49.7767
944420.5,311.4442,236.262,57.29265,49.75149
944432.4,311.0316,236.0855,57.25811,49.73038
944446.7,310.7695,236.0314,57.23614,49.7239
944463.3,310.4534,236.0765,57.20959,49.72929
944482,310.0475,235.8479,57.17545,49.70192
944498.9,309.5499,235.5707,57.13352,49.66867
944513.2,309.0339,235.7596,57.08994,49.69133
944531.4,308.3942,236.2097,57.03576,49.74524
944549.4,307.915,236.2711,56.99507,49.75257
944566.1,307.831,235.5239,56.98793,49.66306
944582.5,307.1227,236.4407,56.9276,49.77285
944597.2,306.8852,236.2167,56.90733,49.74607
944611.8,307.175,236.7879,56.93206,49.8143
944631.6,306.8097,237.5172,56.90088,49.90113
944649.7,306.2959,237.9029,56.85693,49.94693
944663.1,305.7676,237.8839,56.81164,49.94468
944682.3,305.4312,237.6492,56.78274,49.91682
944698.6,305.3166,237.6559,56.77289,49.91762
944713.9,305.3452,237.2975,56.77535,49.87501
944731.6,305.3539,237.3371,56.77609,49.87973
944748.4,305.4402,237.6716,56.78351,49.91948
944765.1,305.3741,238.1903,56.77783,49.98101
944782.9,305.2191,238.6753,56.7645,50.03839
944799.5,304.7386,239.4314,56.7231,50.12757
944815.9,304.0787,240.0491,56.6661,50.2002
944830.7,303.255,240.3554,56.59471,50.23612
944848.2,302.253,240.669,56.5075,50.27285
944869,301.238,240.942,56.41875,50.30478
944884.1,300.4811,241.2335,56.35229,50.33882
944899.4,299.4246,241.6111,56.25914,50.38284
944916.2,298.1989,242.2085,56.15051,50.45233
944933.6,296.8416,242.8598,56.02949,50.52785
944949.1,294.9599,243.9274,55.86044,50.65113
944967.3,293.2662,244.8919,55.70702,50.76194
944981.4,291.2178,245.8432,55.51984,50.87073
944998.5,289.5438,246.7574,55.36554,50.97479
945013.6,287.6595,247.7606,55.19041,51.08846
945030.8,285.7298,248.6156,55.00944,51.1849
945047.7,283.8319,249.7434,54.82985,51.31149
945063.8,282.2165,250.8823,54.67572,51.43862
945080.8,280.0722,252.1185,54.46931,51.57581
945098.6,277.9604,253.1651,54.26396,51.69133
945113.8,275.5026,254.127,54.02238,51.79696
945130.9,273.3248,255.0072,53.80594,51.89322
945147.1,270.9134,256.0551,53.56365,52.00726
945166.8,268.8733,257.2797,53.35648,52.13979
945185.4,267.0839,258.5097,53.17308,52.27212
945197.9,265.037,260.1982,52.96137,52.45251
945219.1,262.6415,261.5788,52.71094,52.59891
945234.3,260.0072,263.1903,52.43217,52.76856
945251.8,257.502,264.9634,52.16376,52.95372
945267.6,254.6195,266.5486,51.85086,53.11793
945293.2,252.7849,267.7444,51.64943,53.24097
945304.8,251.5372,269.1295,51.5114,53.38261
945318.8,249.8484,270.3966,51.32324,53.51136
945332.6,248.2067,271.6186,51.13882,53.6348
945349.5,246.2181,273.1428,50.91346,53.78775
945368.2,244.6477,274.3829,50.73394,53.91138
945387.2,243.3696,275.6537,50.58679,54.03731
945404.8,242.1227,276.3344,50.44236,54.10446
945419.6,240.8544,277.0143,50.29453,54.17131
945437.1,239.6141,277.6215,50.14908,54.23082
945449.7,238.1873,278.4622,49.98065,54.31295
945468.1,236.8843,279.7342,49.8258,54.43658
945487.5,235.8863,280.5764,49.70651,54.51804
945501.6,234.9416,281.1048,49.59307,54.56897
945519.6,234.105,281.6585,49.49216,54.62222
945532.9,233.0676,282.4209,49.36644,54.69529
945551.1,231.725,283.2686,49.20279,54.77623
945569.1,230.4787,283.8224,49.04989,54.82895
945585.1,229.481,284.1714,48.92681,54.86209
945601.4,228.7638,284.5966,48.83797,54.90241
945618.6,228.0604,285.0436,48.75051,54.94469
945635.4,227.2703,285.6858,48.65192,55.00529
945655.7,227.06,286.0824,48.62561,55.04263
945669.4,227.0302,286.4038,48.62188,55.07284
945686.1,226.9228,286.7568,48.60843,55.10596
945702.9,226.9721,286.8894,48.61461,55.11838
945719.4,226.5209,286.9074,48.55805,55.12007
945736.6,226.7388,286.6655,48.58538,55.09739
945753.2,227.0219,286.4288,48.62084,55.07518
945768.1,227.4642,286.1214,48.67615,55.0463
945785.6,227.7395,285.7506,48.71051,55.0114
945801.8,228.108,285.3923,48.75644,54.97763
945818.4,228.2369,284.9626,48.77248,54.93703
945834.7,228.2907,284.928,48.77918,54.93377
945851.4,228.328,284.8157,48.78382,54.92314
945868.3,228.5317,284.6837,48.80914,54.91065
945887.1,228.8058,284.6178,48.84317,54.90441
945905.3,228.9055,284.3061,48.85554,54.87487
945918.4,229.0812,284.1499,48.87732,54.86005
945934.1,229.3724,284.235,48.91338,54.86813
945951.7,229.6559,284.1496,48.94844,54.86002
945968.8,229.9229,283.9676,48.9814,54.84274
945988.9,230.1687,283.8961,49.01171,54.83595
946000.8,230.4728,283.8299,49.04916,54.82966
946017.9,230.8366,283.7437,49.0939,54.82147
946034.3,230.9851,283.6654,49.11213,54.81402
946052.9,231.0875,283.7663,49.12469,54.82362
946068.1,231.3802,284.0799,49.16058,54.8534
946085.5,231.729,284.0497,49.20327,54.85055
946101.9,232.2141,283.7812,49.26253,54.82504
946118.3,232.6254,283.6454,49.31266,54.81212
946134.5,233.0732,283.6095,49.36712,54.8087
946150.8,233.7139,283.5626,49.44484,54.80423
946168.2,234.3107,283.6079,49.517,54.80855
946186.1,234.9119,283.5172,49.5895,54.79992
946201.8,235.6521,283.0544,49.67844,54.75581
946218.6,236.5827,282.9669,49.78981,54.74747
946234.8,237.2166,282.9232,49.86539,54.74329
946252,237.7473,283.1921,49.92847,54.76894
946269.8,238.5337,282.9848,50.02164,54.74918
946286.3,239.1083,282.9504,50.08951,54.7459
946301.9,239.6935,282.9271,50.15841,54.74367
946319.4,240.4074,282.8609,50.24222,54.73734
946335.3,240.9484,282.9212,50.30553,54.7431
946352.3,241.4711,282.9502,50.36653,54.74588
946371.3,241.896,282.8077,50.416,54.73227
946386.3,242.1392,282.455,50.44428,54.69855
946401.7,242.2621,281.886,50.45855,54.64405
946418.4,242.2107,281.0504,50.45258,54.56373
946435.9,242.26,280.9271,50.45831,54.55185
946452.1,242.5801,280.1618,50.49544,54.47798
946469.9,242.6224,279.6215,50.50035,54.42566
946484.6,242.7146,279.019,50.51103,54.36716
946502,242.8321,278.3638,50.52465,54.30335
946519.2,242.8759,277.3389,50.52971,54.20314
946536.5,242.5191,276.2133,50.48837,54.09253
946553.8,242.3603,275.1331,50.46995,53.98582
946569.6,242.2316,274.1734,50.45501,53.89054
946587.1,242.2246,273.0785,50.4542,53.78132
946603.8,242.1399,271.9518,50.44436,53.66833
946621.4,242.1046,270.6796,50.44026,53.54001
946638.8,241.9728,268.9469,50.42493,53.36399
946655.7,242.0492,267.6855,50.43382,53.23492
946671.8,242.2453,266.6246,50.45659,53.12576
946690.3,242.5039,265.5605,50.48661,53.01571
946708.4,242.6305,264.8435,50.50129,52.94125
946720.9,242.7677,263.887,50.51718,52.84151
946738.5,242.821,263.1521,50.52336,52.76456
946754.6,242.8748,262.0821,50.52959,52.65203
946771,242.9229,261.0052,50.53516,52.5382
946786.9,242.9392,259.8925,50.53704,52.41995
946806.6,243.0046,258.9317,50.54461,52.31734
946825.1,243.0679,257.4958,50.55193,52.16309
946840,243.1622,257.1348,50.56284,52.12415
946853.9,243.8593,256.041,50.64328,52.00571
946871.1,244.0588,254.8669,50.66626,51.8779
946889.4,244.3123,253.3256,50.69541,51.70899
946904.9,244.411,251.3708,50.70676,51.49293
946922.6,244.5327,249.6118,50.72072,51.29675
946940.4,244.6143,248.1942,50.7301,51.13742
946956.4,245.1212,247.8242,50.7882,51.09565
946973.4,245.5889,247.4962,50.84169,51.05856
946990.2,246.287,246.6592,50.92131,50.96363
947007.9,246.5766,244.8431,50.95425,50.75634
947027.6,247.3082,243.6904,51.03727,50.62381
947041.1,247.9244,242.3476,51.10697,50.46847
947058.6,248.3409,241.0315,51.15396,50.31523
947072.5,249.1292,239.4006,51.24263,50.12395
947090.2,249.9158,237.8811,51.33078,49.94434
947106,250.5682,236.3127,51.40363,49.75755
947123.8,251.2862,234.2156,51.48354,49.50552
947140.3,252.0176,232.3455,51.56465,49.27855
947157.7,252.5684,231.0618,51.62553,49.12154
947173.2,252.9233,229.7396,51.66469,48.95877
947191.8,252.9482,228.7251,51.66743,48.83316
947210,252.9311,227.5262,51.66555,48.6839
947225.7,252.9938,226.2839,51.67245,48.52829
947242.7,252.9111,225.5196,51.66335,48.43208
947259.3,252.6784,224.8428,51.63768,48.34658
947271.7,252.1775,224.2036,51.58234,48.26556
947288.9,251.5179,224.2446,51.50927,48.27077
947307.6,250.5193,224.4753,51.39817,48.30003
947324.3,249.5924,224.9095,51.29458,48.35501
947340.3,248.2355,226.0378,51.14207,48.49734
947358.1,246.981,226.648,51.00018,48.57399
947373.5,245.3903,227.0761,50.819,48.62762
947390.1,243.3284,228.2375,50.58204,48.77256
947407.1,241.4711,229.0124,50.36653,48.8688
947422.9,239.6017,229.8859,50.14761,48.97684
947441,237.9871,231.2183,49.95692,49.14074
947457.9,236.3678,232.4643,49.76414,49.29304
947473,234.3542,234.1522,49.52226,49.49786
947492.1,232.6801,235.578,49.31931,49.66955
947507.4,231.2752,236.9068,49.14771,49.82848
947522.2,229.8186,238.6096,48.96853,50.03062
947538.7,228.3172,240.3185,48.78247,50.2318
947555.8,226.7495,241.7384,48.58672,50.39766
947572.7,225.1914,243.0681,48.39065,50.55194
947590.6,224.0061,244.2654,48.24048,50.69001
947607.5,223.0741,244.9698,48.12177,50.77087
947623.9,222.3543,245.5662,48.02972,50.8391
947640.8,221.7962,245.8302,47.95811,50.86925
947657.1,221.3993,246.3015,47.90707,50.92295
947672.9,220.7974,246.8395,47.82947,50.98412
947689.7,220.3164,247.2006,47.7673,51.02507
947708.6,219.851,247.3175,47.70699,51.03833
947725,219.3817,247.1482,47.64603,51.01915
947742.3,219.1475,247.1652,47.61557,51.02106
947758.8,218.93,247.2206,47.58724,51.02734
947773.4,218.5619,246.9795,47.53922,51.00001
947791.5,218.2409,246.482,47.49728,50.94349
947814.4,217.9324,246.2546,47.45691,50.91761
947827.8,217.7894,245.984,47.43816,50.88679
947841.7,217.637,245.4929,47.41819,50.83072
947865.9,217.5504,245.1119,47.40683,50.78715
947876.9,217.4915,245.0701,47.3991,50.78235
947890.4,217.5092,245.1582,47.40142,50.79245
947906.9,217.6807,245.4369,47.42392,50.82433
947927.2,217.8318,245.6429,47.44373,50.84787
947942.6,218.1234,245.6099,47.4819,50.84409
947959.6,218.349,245.7663,47.51141,50.86195
947975.4,218.4668,245.6755,47.5268,50.85158
947992.6,218.7291,245.4838,47.56105,50.82969
948009.6,219.087,245.6639,47.6077,50.85026
948026.4,219.3503,245.6578,47.64195,50.84957
948045.8,219.6666,245.1096,47.68306,50.78688
948059.1,219.9828,245.013,47.72408,50.77581
948075.3,220.2263,245.3871,47.75563,50.81863
948091.9,220.6821,245.3853,47.81458,50.81843
948109.3,221.3065,244.8207,47.89512,50.75377
948129,221.7946,244.4333,47.9579,50.70931
948142.3,222.3335,244.3359,48.02705,50.69812
948157.4,222.806,244.4273,48.08752,50.70863
948173.3,223.266,244.4115,48.14625,50.7068
948191.4,223.609,244.0917,48.18997,50.67004
948207.4,224.2881,243.939,48.27629,50.65246
948225.7,224.8795,243.6606,48.35122,50.62038
948242.4,225.4985,243.0699,48.42942,50.55216
948257.9,226.2914,242.2689,48.52923,50.45934
948274.2,227.0245,241.5987,48.62116,50.38139
948292,227.8252,240.6888,48.72121,50.27516
948308,229.0299,239.6626,48.87097,50.15479
948324.4,230.428,238.7957,49.04365,50.05262
948341.5,232.0093,237.8736,49.23753,49.94345
948357.7,233.7823,237.1288,49.45312,49.85492
948373.7,235.4562,236.0182,49.65493,49.72231
948391.7,237.5057,234.9424,49.89977,49.59317
948409.5,239.2101,233.6758,50.10151,49.44022
948424.4,241.4529,231.4475,50.3644,49.16882
948442.5,243.3977,229.1327,50.59004,48.8837
948458.1,245.4122,226.5004,50.8215,48.55547
948474.4,247.5867,223.7064,51.06879,48.20237
948491.7,249.3902,221.1398,51.27192,47.87364
948508.6,251.4231,218.0699,51.49874,47.47491
948525.5,253.364,215.432,51.71321,47.12738
948542.5,255.467,212.8589,51.94332,46.78395
948559.9,257.9319,210.263,52.21006,46.43299
948576.4,260.5714,207.321,52.49218,46.02969
948594.6,263.3649,204.7488,52.78687,45.67221
948613.1,266.0003,202.8597,53.06127,45.40671
948629.5,268.5399,201.0547,53.32242,45.15068
948655.4,272.8667,198.2183,53.76012,44.74365
948673.2,276.0363,195.6935,54.07508,44.37646
948687.5,279.4077,192.4606,54.40492,43.89945
948699.1,281.8929,191.8558,54.64471,43.80936
948709.9,285.7272,189.3642,55.0092,43.43531
948728.5,289.8983,186.6723,55.39832,43.02594
948746.1,293.4679,184.4963,55.72535,42.69097
948762.6,297.0888,182.3675,56.05159,42.35973
948778,300.658,180.505,56.36785,42.06704
948793.9,304.7927,178.6239,56.72777,41.76866
948812.4,308.382,176.976,57.03473,41.50497
948828.6,312.5376,175.0289,57.38388,41.19061
948845.8,316.463,173.4848,57.70771,40.93916
948862.7,319.9824,172.7172,57.9932,40.81343
948879.6,323.4007,172.132,58.2662,40.71726
948896,326.8454,171.8833,58.53711,40.6763
948912.2,330.0142,171.8844,58.78269,40.67648
948928.9,333.0448,171.7046,59.01435,40.64685
948945.6,336.0141,171.7361,59.23834,40.65205
948962.2,338.8445,171.3751,59.44915,40.59246
948978.8,341.4973,171.576,59.64436,40.62563
948994,344.4452,172.3521,59.85867,40.75347
949013.1,347.1765,172.6395,60.05479,40.80067
949029.9,349.8213,173.0634,60.24251,40.87019
949046.8,352.1519,173.5262,60.40617,40.94591
949063.6,354.2306,174.1676,60.55076,41.05058
949080.9,356.3167,175.1083,60.69457,41.2035
949098.1,358.1116,176.0729,60.8173,41.35955
949112.9,359.9416,177.2933,60.94145,41.55592
949129.8,361.3902,178.5168,61.03905,41.75158
949147.8,362.6069,179.662,61.12056,41.93367
949162.9,364.1093,180.8851,61.22064,42.127
949179.5,365.8363,181.7269,61.3349,42.25937
949197.2,367.8852,182.7442,61.46938,42.41861
949213.5,369.3053,183.5573,61.56192,42.5453
949228.6,370.8108,184.5139,61.65942,42.69369
949247.4,371.9739,184.9026,61.73432,42.75378
949265.8,373.0046,185.4838,61.8004,42.84343
949278.6,374.0133,186.1413,61.86479,42.94452
949296.6,375.0266,186.7192,61.9292,43.0331
949312.1,376.4235,187.1969,62.01756,43.10614
949329.9,377.7143,187.5939,62.09875,43.1667
949345.4,378.7921,188.1153,62.16621,43.24606
949361.7,379.8905,188.5999,62.23465,43.31964
949378.7,380.9458,188.9395,62.30012,43.37109
949394.5,382.3439,189.3941,62.38642,43.43982
949412.3,383.6675,189.845,62.46766,43.50785
949428.2,384.7652,190.6402,62.5347,43.62745
949445.3,385.7101,191.4493,62.59217,43.74865
949464.2,386.8937,192.3566,62.66385,43.88398
949479.9,388.3128,193.1356,62.74933,43.99969
949495.8,389.8376,193.7392,62.84063,44.08902
949513.4,391.0713,194.3589,62.91409,44.18047
949529.4,391.86,195.23,62.96085,44.30853
949546.6,392.5277,195.9996,63.00033,44.42122
949563.4,393.1619,196.9977,63.03773,44.5667
949580.2,393.9553,198.1969,63.08438,44.74056
949598.2,394.6366,199.1611,63.12432,44.87959
949613.6,395.0855,199.8054,63.15058,44.97211
949630.1,395.498,200.8521,63.17466,45.12179
949647.9,395.6894,201.9252,63.18582,45.27444
949663.4,395.9447,203.0508,63.2007,45.43369
949679.2,396.5724,203.7672,63.23721,45.53457
949696.1,397.2384,204.8086,63.27584,45.68057
949711.6,397.6639,206.3296,63.30047,45.89245
949728.7,397.9558,208.0256,63.31734,46.12683
949746.9,398.2455,209.188,63.33407,46.28632
949764.9,398.5876,209.8855,63.35379,46.38157
949780.4,398.8085,210.6799,63.36652,46.48967
949796.3,398.9954,212.217,63.37727,46.6976
949813.4,398.9995,214.0762,63.37751,46.94697
949831.6,399.1772,216.7317,63.38773,47.29918
949847.2,399.4337,219.5122,63.40247,47.663
949864.1,399.3238,221.8857,63.39615,47.96961
949880.6,399.1727,223.6818,63.38747,48.19923
949899.5,399.4654,224.7761,63.40429,48.33813
949912.7,399.909,225.5468,63.42974,48.43551
949929.9,400.3539,226.2529,63.45522,48.5244
949946.3,400.5864,227.2915,63.46851,48.65456
949963.1,400.5455,229.0006,63.46617,48.86733
949980.3,400.35,231.1079,63.45499,49.1272
949996.6,400.0482,233.02,63.43771,49.36065
950012.3,399.9853,234.7324,63.4341,49.56787
950030.8,400.1202,235.8357,63.44183,49.70045
950046.7,400.3466,236.0587,63.4548,49.72716
950065.9,400.9086,236.409,63.48691,49.76906
950083.5,401.839,236.7389,63.53993,49.80846
950096.6,403.1945,236.9913,63.61682,49.83855
950111.8,404.1587,237.9368,63.67126,49.95095
950129.1,404.9216,239.7954,63.71418,50.1704
950146.5,405.329,241.1686,63.73705,50.33124
950162.3,405.4773,242.7367,63.74537,50.51359
950180.2,405.545,244.2102,63.74916,50.68367
950198.1,405.3476,245.3502,63.7381,50.81441
950214,405.2594,245.8558,63.73315,50.87217
950230.3,405.6122,246.9395,63.75293,50.99548
950250.1,405.9843,247.9638,63.77377,51.11142
950266.7,406.112,249.3051,63.78091,51.26238
950283.3,405.9616,250.6796,63.7725,51.41604
950300.1,405.6682,252.223,63.75607,51.58737
950316.4,405.2313,253.3199,63.73158,51.70836
950332.9,405.0631,254.0954,63.72213,51.7935
950349.4,405.3009,254.962,63.73548,51.88828
950367.6,405.4045,256.1313,63.74129,52.01551
950383.5,405.1355,258.0032,63.7262,52.21772
950401.6,404.7485,259.9857,63.70446,52.42988
950419.1,404.3923,261.8944,63.68442,52.63224
950433.3,404.3485,263.9664,63.68195,52.8498
950450.6,404.5071,265.9401,63.69088,53.05504
950468.4,404.7344,267.52,63.70366,53.21793
950484,404.4458,268.9216,63.68743,53.36141
950503,404.1185,270.6423,63.66899,53.53624
950521.3,403.9864,271.7946,63.66154,53.65251
950533.2,403.5959,272.5569,63.63951,53.72908
950549.5,403.1624,273.3469,63.615,53.80815
950567.9,402.6501,273.6422,63.58599,53.83762
950584.8,402.3565,273.8638,63.56933,53.85971
950603.6,402.2062,273.968,63.5608,53.8701
950617.8,401.9669,274.4195,63.54721,53.91502
950632.4,401.8435,275.065,63.54018,53.97907
950651,401.9465,275.7805,63.54604,54.04984
950666.9,402.0595,276.3374,63.55247,54.10475
950686.1,402.1438,276.4179,63.55725,54.11267
950702.1,402.1032,276.0051,63.55495,54.072
950720.1,401.8758,275.5842,63.54202,54.03044
950734.9,401.6377,275.1311,63.52847,53.98562
950750.3,401.3321,274.9428,63.51107,53.96696
950768.9,401.2375,274.2186,63.50568,53.89504
950785.3,401.0823,273.8005,63.49683,53.85341
950800.7,400.8397,273.2166,63.48298,53.79513
950817.4,400.7436,272.5573,63.47749,53.72913
950831.2,400.7728,272.0766,63.47916,53.68087
950849.5,401.0784,271.7652,63.4966,53.64955
950867.9,401.4556,271.0921,63.51811,53.5817
950882.3,401.7961,270.509,63.53749,53.52274
950900.8,402.0281,269.6893,63.55068,53.43958
950917.6,401.8646,269.0886,63.54138,53.37844
950932.9,401.3824,268.5342,63.51394,53.32184
950949.7,400.9476,268.2239,63.48914,53.29011
950967.1,400.6275,268.5835,63.47086,53.32689
950985.1,400.4326,269.1088,63.45972,53.3805
951002.6,400.2338,269.684,63.44834,53.43905
951016.8,400.2309,269.9204,63.44817,53.46307
951032.7,400.0538,269.787,63.43803,53.44952
951050.9,399.7509,269.5329,63.42067,53.42368
951068.6,399.6122,269.0266,63.41272,53.37211
951084.8,399.7368,269.0738,63.41986,53.37693
951103,399.7805,269.6663,63.42237,53.43725
951117.7,399.7378,270.4485,63.41991,53.51661
951133.6,399.5418,271.8959,63.40867,53.6627
951153.2,399.3706,272.4548,63.39884,53.71885
951170,399.153,272.9164,63.38634,53.76509
951183.7,398.531,273.8405,63.35053,53.8574
951201,398.1485,274.5227,63.32847,53.92527
951217.9,397.838,275.0699,63.31054,53.97955
951233.8,397.3953,276.1234,63.28493,54.08367
951251.6,396.791,277.1231,63.2499,54.18198
951267.9,396.1745,278.1255,63.21407,54.28009
951284.6,395.588,278.9065,63.17991,54.35622
951301.2,394.7791,279.2863,63.13266,54.39313
951317.8,393.9014,279.6967,63.08121,54.43295
951335.6,393.1267,280.1695,63.03566,54.47872
951350.1,392.3035,280.8021,62.98709,54.53981
951367.3,391.7185,281.1866,62.95248,54.57685
951386.7,391.3922,281.4385,62.93313,54.60108
951402.9,391.0693,281.3762,62.91397,54.59508
951418.6,390.916,280.8939,62.90486,54.54865
951434.9,390.8986,280.4184,62.90382,54.50278
951452.3,391.2915,279.4894,62.92715,54.41285
951468,391.4333,278.4564,62.93557,54.31238
951486.6,391.8327,277.8767,62.95924,54.25579
951503.6,392.1463,277.3907,62.97779,54.20823
951520.9,392.2355,276.9325,62.98307,54.16327
951536.4,392.3416,276.5901,62.98934,54.12963
951551.3,392.2786,275.968,62.98561,54.06834
951567.9,392.4088,275.3656,62.99331,54.00883
951584.7,392.5753,274.4707,63.00314,53.92011
951601.4,392.724,273.7433,63.01192,53.8477
951619.6,392.9292,272.8376,63.02402,53.75722
951635.4,393.338,271.6184,63.0481,53.63478
951652.6,393.8029,270.1896,63.07543,53.49038
951669.4,394.4401,268.671,63.11281,53.33582
951686.3,395.0142,267.2406,63.14641,53.18921
951703.6,395.5022,265.9492,63.17491,53.05598
951718.8,395.9991,264.2007,63.20387,52.87427
951734,396.3601,262.3086,63.22487,52.67591
