Time Stamp(ms),Intersection,,Angle,
,x,y,x,y
413179.6,289.472,254.2345,55.35889,51.80874
413196.4,288.9923,254.0546,55.31444,51.78903
413213.8,288.6086,253.7943,55.27881,51.76049
413229.8,287.999,253.5619,55.22207,51.73496
413247.6,287.2274,253.3927,55.15003,51.71637
413267.2,286.4333,253.3211,55.07561,51.70849
413281.6,285.7116,253.3314,55.00773,51.70962
413298.4,285.1323,253.3715,54.95308,51.71404
413313.8,284.8482,253.2202,54.92622,51.69738
413331.4,284.3872,253.1699,54.88256,51.69186
413347.4,283.5518,253.1673,54.80321,51.69157
413366.1,282.794,253.2159,54.73096,51.69692
413380.6,281.7794,253.2947,54.63382,51.70559
413398.3,280.964,253.4246,54.55541,51.71988
413413.6,280.1428,253.5712,54.47614,51.73598
413430.3,279.4716,253.6211,54.41111,51.74147
413448.1,278.9871,253.9012,54.36406,51.77221
413463.8,278.6066,254.0089,54.32702,51.78402
413480.5,278.1654,253.9843,54.28399,51.78133
413497.2,277.5486,254.1352,54.22368,51.79787
413513.5,276.8931,254.2899,54.1594,51.81481
413530.2,276.3572,254.5041,54.1067,51.83825
413548.8,275.7451,254.7181,54.04634,51.86165
413568.3,275.305,254.8599,54.00283,51.87713
413579.8,275.0035,255.1479,53.97298,51.90855
413599.7,274.5697,255.5101,53.92994,51.94801
413614.6,274.1672,255.9647,53.88993,51.99744
413629.8,273.3802,256.5353,53.81148,52.05931
413647.8,272.288,257.3034,53.70211,52.14235
413664,270.9138,258.261,53.56369,52.24543
413680.5,269.2211,259.3485,53.39194,52.36192
413696.5,267.0777,260.6324,53.17245,52.49865
413713.2,264.5609,262.0339,52.91183,52.64695
413731.2,262.5401,263.3785,52.70028,52.78829
413746,260.0181,265.0163,52.43334,52.95922
413763.2,257.0799,266.5655,52.11822,53.11967
413780,253.5415,268.3066,51.73272,53.29857
413795.9,249.2009,270.2225,51.25068,53.49372
413812.7,245.3496,271.8101,50.81434,53.65407
413829.7,241.6461,273.2822,50.38691,53.80169
413845.8,237.9206,274.8303,49.94904,53.9558
413866.2,234.5045,276.0642,49.54039,54.07783
413878.8,230.8982,277.2617,49.10146,54.19557
413895,226.6752,278.5974,48.57741,54.32612
413912.3,223.0689,279.6456,48.12111,54.42799
413928.8,219.4015,280.6843,47.64862,54.52845
413946.3,215.7352,281.7943,47.16756,54.63525
413962.1,210.8778,282.9488,46.51653,54.74574
413979.5,206.1678,284.1332,45.86998,54.85847
413997.3,201.7715,285.4226,45.25263,54.98048
414014.5,197.3442,286.9334,44.61705,55.12251
414029.6,193.0118,288.2093,43.98132,55.24166
414046.6,188.3943,289.3614,43.28844,55.34866
414064,183.6289,290.4566,42.55642,55.44983
414080.8,178.7349,292.0165,41.78635,55.59304
414097.3,172.9501,293.9188,40.85163,55.76628
414111.7,166.5825,295.9566,39.79134,55.95017
414129.6,160.6027,297.6691,38.76494,56.10336
414145.3,154.4114,299.0559,37.67019,56.22653
414163.3,150.2631,299.841,36.91811,56.29591
414178.7,145.8198,300.5735,36.09576,56.36041
414195.7,141.8168,301.2385,35.33984,56.41879
414217,136.955,302.3459,34.40236,56.51561
414231.4,130.4108,303.8844,33.10651,56.64929
414248.8,124.5257,304.8605,31.90758,56.73362
414263.8,120.2127,305.2903,31.00854,56.77063
414281.3,117.1298,305.4223,30.35533,56.78198
414298.3,114.6122,305.3088,29.81534,56.77221
414313.8,111.7363,305.055,29.19128,56.75037
414332.6,109.1226,305.162,28.61745,56.75959
414348.4,106.9482,305.0659,28.13524,56.7513
414368,105.095,304.7412,27.7208,56.72333
414385.4,103.6946,304.4502,27.40552,56.69821
414401.1,102.3605,304.2632,27.10349,56.68205
414417.3,101.1946,304.0054,26.83818,56.65976
414432.4,100.7446,303.5775,26.73545,56.62269
414446.1,101.1838,302.9316,26.8357,56.56661
414466.8,101.5391,302.3035,26.9167,56.5119
414481.4,102.0867,302.0038,27.04129,56.48574
414498.2,102.1414,302.4315,27.05371,56.52306
414513.5,102.5335,302.5215,27.14275,56.53091
414530.9,103.3152,302.7727,27.3198,56.55279
414548.3,105.2478,302.6848,27.7551,56.54513
414564.7,106.9239,302.5227,28.12984,56.53101
414581.3,108.674,302.6813,28.51834,56.54483
414598.1,109.8365,303.1079,28.77483,56.58194
414612.1,111.1619,303.3261,29.06573,56.60088
414631.5,113.148,303.1582,29.49858,56.5863
414649,115.0099,302.9344,29.90104,56.56686
414666.2,116.6582,302.7213,30.25463,56.54831
414683.3,118.0401,302.7088,30.54913,56.54722
414701.6,119.4224,302.7277,30.84194,56.54886
414718.3,120.8932,302.6768,31.15154,56.54444
414734,122.2656,302.6419,31.43862,56.5414
414750.5,123.3179,302.5355,31.65754,56.53213
414767.1,124.0013,302.2926,31.79918,56.51096
414785.8,124.9675,302.1645,31.99869,56.49978
414801.7,126.145,302.0601,32.24065,56.49067
414820.5,127.5832,301.7664,32.53445,56.465
414836.3,128.7331,301.6672,32.76799,56.45633
414850.8,129.8529,301.749,32.99422,56.46348
414871.2,130.8618,301.4359,33.19708,56.43608
414888.5,131.711,301.2579,33.3671,56.42049
414902.2,133.1604,300.7586,33.65577,56.37668
414916.7,134.6765,300.2154,33.95564,56.32891
414934.2,135.9168,299.827,34.19939,56.29468
414951.2,136.9441,299.5524,34.40024,56.27044
414968.3,137.8512,299.2178,34.57679,56.24086
414985.9,138.827,298.678,34.76587,56.19305
415003.6,139.4313,298.0551,34.88253,56.13772
415023.1,139.9191,297.1778,34.97647,56.05953
415037.9,140.1133,296.3864,35.01379,55.98873
415052.3,139.8178,295.4372,34.95698,55.90346
415070.2,139.5645,294.4893,34.90819,55.81794
415086,139.5925,293.4192,34.91359,55.72092
415101.6,139.7003,291.799,34.93435,55.57313
415118.5,139.8382,290.2959,34.96091,55.43502
415135.3,140.0209,288.649,34.99604,55.28257
415152.7,140.4547,286.5922,35.07935,55.09052
415170.1,141.0292,284.7538,35.18943,54.91728
415186.5,141.5476,283.3081,35.2885,54.78001
415202.4,141.7801,282.1019,35.33285,54.66475
415218.3,141.9622,281.0591,35.36755,54.56457
415237.6,142.189,280.1484,35.41073,54.47668
415255.7,142.6353,279.1655,35.49557,54.3814
415270.1,142.9686,278.2831,35.55881,54.29548
415284.3,142.8786,277.4269,35.54174,54.21177
415304,142.7711,276.5792,35.52135,54.12855
415319.3,142.69,275.7473,35.50597,54.04655
415335,142.7587,274.7288,35.519,53.94573
415351.8,142.8027,274.0871,35.52735,53.88196
415368.1,142.8777,273.2611,35.54157,53.79957
415385.1,142.5774,272.6257,35.48458,53.73598
415403,142.3068,271.9879,35.43314,53.67195
415418.9,142.6645,271.0297,35.50111,53.5754
415434.9,143.0457,270.0646,35.57343,53.4777
415451.4,143.4369,268.9556,35.6475,53.36487
415469.2,143.5195,267.8351,35.66314,53.25027
415486.1,143.1992,266.887,35.60252,53.15282
415502.8,143.3512,266.0822,35.63129,53.06974
415518.1,143.5132,265.3599,35.66193,52.99491
415533.4,143.7007,264.5245,35.69739,52.90804
415551.9,143.9015,263.712,35.7353,52.82321
415568.9,144.2134,262.7944,35.79414,52.72701
415584.8,144.4056,262.128,35.83033,52.65687
415601.2,144.6405,261.5282,35.87455,52.59356
415618.9,145.2365,260.9806,35.9865,52.53559
415634.8,145.757,260.6383,36.08401,52.49928
415651.7,146.4087,260.138,36.20575,52.4461
415671.8,146.6883,259.8228,36.25786,52.41253
415685.8,146.8447,259.4144,36.28699,52.36896
415703.4,146.8817,259.1333,36.29387,52.33891
415718.8,147.6107,259.0656,36.42932,52.33167
415736.2,148.7387,258.9413,36.63794,52.31837
415753.2,149.7825,258.9297,36.83,52.31713
415769,150.3111,259.0562,36.9269,52.33067
415785.7,150.6429,259.2045,36.98759,52.34652
415803.2,151.122,259.0657,37.07506,52.33168
415821.2,151.7725,258.8915,37.1935,52.31304
415835.2,152.5424,258.5197,37.3332,52.27319
415852.3,153.39,258.1515,37.48641,52.23366
415868.5,154.4962,257.765,37.6854,52.19209
415886,155.7603,257.3622,37.91151,52.14868
415902,157.3586,256.6575,38.19542,52.07254
415920.4,158.3857,256.0014,38.37671,52.00142
415935.5,159.445,255.557,38.56273,51.95312
415951.9,160.9221,255.1604,38.82051,51.90992
415973,162.8308,254.9049,39.15089,51.88205
415989.5,164.6017,254.8172,39.45467,51.87246
416003.3,166.4423,254.8101,39.76762,51.8717
416020.1,168.822,254.7818,40.16805,51.8686
416037.5,171.5431,254.8746,40.6202,51.87874
416054.3,174.4624,254.788,41.09859,51.86928
416070.8,177.6648,254.7312,41.61545,51.86307
416087.4,180.4936,254.6842,42.06525,51.85794
416103.5,183.7472,254.7814,42.57481,51.86856
416121.5,186.8317,255.0308,43.05033,51.89578
416143.8,190.1292,255.4132,43.55066,51.93747
416157.1,192.8609,255.6787,43.95892,51.96635
416171.8,195.8077,255.8645,44.39315,51.98655
416187.8,198.8364,256.0382,44.83284,52.00542
416204.4,201.5708,256.2946,45.22412,52.03323
416220.9,204.4594,256.5021,45.63169,52.05572
416237.6,207.8847,256.8299,46.10743,52.0912
416256.8,211.1338,257.0687,46.55123,52.11701
416271.8,214.56,257.3564,47.01149,52.14806
416289,218.1711,257.7401,47.48814,52.18941
416306.3,221.5795,258.2413,47.93025,52.24331
416322.5,225.4433,258.7623,48.42245,52.2992
416340.3,228.0543,259.1822,48.74976,52.34414
416353.5,230.8214,259.6608,49.09203,52.39525
416369.6,233.7927,260.2523,49.45438,52.45826
416388,236.8976,261.0363,49.82738,52.5415
416407.3,239.8367,261.8234,50.17524,52.62474
416422.1,243.5777,262.8418,50.61082,52.73199
416440.1,246.5744,263.4703,50.954,52.79791
416455.9,249.1498,263.9529,51.24495,52.84839
416471.2,251.9073,264.4489,51.55244,52.90016
416489.1,254.6556,264.988,51.85482,52.95628
416506.9,257.506,265.6014,52.16419,53.01995
416524.8,260.4388,266.3646,52.47809,53.09893
416540.4,263.2483,266.9717,52.77465,53.16154
416556.6,265.7794,267.5568,53.03841,53.2217
416571.1,268.4457,267.931,53.31279,53.26011
416589.8,270.9123,268.2128,53.56354,53.28897
416606.1,273.6339,268.7417,53.8368,53.34304
416623.1,276.6224,269.3069,54.1328,53.40068
416639.6,279.8606,269.8463,54.44883,53.45554
416655.8,282.719,270.4902,54.72379,53.52084
416673,285.4814,271.27,54.98603,53.59966
416688.8,288.2538,272.1183,55.24581,53.68507
416706.2,290.988,272.8785,55.49873,53.76131
416721.7,294.2147,273.7155,55.79309,53.84494
416739.5,297.0903,274.5287,56.05172,53.92587
416755.6,300.1419,275.5291,56.32243,54.025
416773.3,302.6432,276.5334,56.54151,54.12405
416790.3,305.3626,277.4327,56.77685,54.21234
416807.8,308.1985,278.3615,57.01915,54.30312
416823.4,311.0241,279.2409,57.25748,54.38872
416842.4,314.0993,280.2934,57.51341,54.4907
416859,316.9369,281.5511,57.74642,54.6119
416872.5,319.5724,282.6692,57.96017,54.71904
416889.3,322.5595,283.7215,58.19941,54.81936
416907.3,325.7867,284.7445,58.45429,54.9164
416926.3,328.5564,285.5402,58.67014,54.99157
416940.3,331.342,286.2676,58.88457,55.06004
416956.9,334.1297,286.9826,59.09653,55.12711
416972.5,337.0616,287.571,59.31666,55.18214
416990.5,339.9024,287.8557,59.52727,55.20871
417005.6,342.8089,288.0499,59.74006,55.22682
417022,345.5645,288.1747,59.93932,55.23845
417038.5,348.4253,288.0958,60.14369,55.23109
417055.1,351.4008,288.204,60.3536,55.24117
417072.3,354.4695,288.1263,60.56729,55.23394
417089.5,357.3994,288.0213,60.76871,55.22415
417105.4,360.6636,287.7531,60.99017,55.19914
417122.5,363.4795,287.4589,61.17877,55.17167
417138.8,366.3812,286.9574,61.37078,55.12475
417155,369.1716,286.5776,61.55323,55.08915
417171.2,371.8275,286.1121,61.72491,55.04543
417188.4,374.618,285.5781,61.90326,54.99515
417204.2,377.7072,284.9965,62.0983,54.94024
417222.1,380.779,284.3855,62.28979,54.8824
417239.7,383.4312,283.9316,62.45319,54.83932
417255.2,386.1401,283.4837,62.61825,54.79673
417272.1,388.8894,283.1174,62.78392,54.76183
417289.4,391.7299,282.6599,62.95315,54.71814
417307.3,394.2966,282.53,63.1044,54.70573
417322.6,396.6401,282.459,63.24114,54.69893
417339.3,399.0161,282.3197,63.37847,54.6856
417355.9,401.3416,282.3333,63.51161,54.6869
417373.3,402.9504,282.1412,63.603,54.66851
417388.1,404.761,282.0019,63.70516,54.65516
417404.6,406.9021,281.7611,63.82502,54.63206
417422.1,408.7524,281.402,63.92778,54.59756
417438.9,410.1234,280.7364,64.00345,54.53347
417454.6,411.7558,280.1615,64.093,54.47794
417471.1,413.776,279.499,64.20304,54.41378
417488.3,415.9028,278.8101,64.31796,54.34683
417505.7,417.9661,278.124,64.42853,54.27995
417522.6,420.6387,276.9733,64.57043,54.16727
417543.1,423.1398,275.9019,64.70191,54.06182
417558.1,425.6355,274.8054,64.83184,53.95333
417574.6,428.308,273.5035,64.9696,53.82379
417591.3,430.8672,272.2204,65.1002,53.69532
417607.7,433.3231,270.9264,65.22434,53.56496
417623.6,435.7597,269.6042,65.34637,53.43094
417641.5,438.3643,268.3823,65.47556,53.30631
417658.2,440.6746,267.4128,65.5891,53.20692
417671.8,443.0168,266.2501,65.70319,53.0871
417689,445.281,265.1219,65.81255,52.97019
417705.1,447.2656,264.153,65.90764,52.86929
417721.9,448.8779,263.2402,65.98438,52.7738
417739.8,449.9113,262.4161,66.03332,52.68722
417754.8,450.8399,261.65,66.07714,52.60643
417777.1,451.588,261.1492,66.11233,52.55346
417790.2,452.1433,260.739,66.13839,52.50997
417806.4,452.4511,260.5131,66.15282,52.48598
417824.9,452.3322,260.3295,66.14724,52.46647
417839.3,452.1426,260.0728,66.13836,52.43916
417855,452.1027,259.6263,66.13648,52.39158
417873.9,451.7514,259.1135,66.12,52.3368
417889.3,451.2218,258.6044,66.09512,52.28227
417905.4,450.9772,258.1739,66.0836,52.23607
417927.3,450.3947,257.7682,66.05615,52.19244
417941,449.7196,257.3433,66.02425,52.14664
417958,448.9846,256.9504,65.98944,52.10422
417973.6,448.1708,256.2465,65.95078,52.02802
417992.6,447.43,255.7343,65.91548,51.9724
418008.2,446.5182,255.1896,65.87191,51.9131
418024.7,445.7284,254.6849,65.83405,51.85802
418041.4,445.1591,254.0757,65.80669,51.79134
418057.9,444.6852,253.325,65.78387,51.70892
418074.9,444.1333,252.6757,65.75723,51.63738
418091.3,443.5112,252.0301,65.72716,51.56604
418107.7,442.8225,251.1088,65.69377,51.46382
418126.3,441.9856,250.0695,65.65308,51.34795
418142.2,441.2054,249.0356,65.61504,51.23212
418161.5,440.4772,248.0243,65.57943,51.11824
418176.7,439.786,247.0275,65.54555,51.00546
418194.4,439.2787,246.0623,65.52061,50.89571
418208.5,438.9386,244.968,65.50388,50.77066
418225.7,438.3342,243.7787,65.47408,50.63399
418242.3,437.435,242.3962,65.42961,50.47412
418261.8,436.6506,241.1255,65.3907,50.32621
418276.4,435.8063,239.8952,65.34869,50.18213
418292.7,435.0113,238.6821,65.30901,50.0392
418311.3,434.1314,237.6844,65.26495,49.921
418325.6,433.0812,236.5147,65.21217,49.78169
418342.2,432.311,235.5127,65.17333,49.66172
418359.3,431.8982,234.5733,65.15247,49.54869
418377.6,431.3443,233.7959,65.12441,49.45476
418393.5,430.4807,233.143,65.08057,49.3756
418407.6,429.25,232.1851,65.01783,49.259
418427.2,427.8767,231.0329,64.94746,49.118
418444,426.2394,229.5402,64.8631,48.93413
418460.3,424.8723,228.0193,64.79224,48.7454
418477.2,423.7244,226.5998,64.73246,48.56794
418492.3,422.1617,224.6379,64.65065,48.32063
418510.5,420.6057,222.9016,64.56869,48.09974
418526.9,419.0285,221.1346,64.48512,47.87297
418542.5,417.7052,219.4971,64.4146,47.66104
418559.8,416.5004,217.7722,64.35007,47.43592
418575.9,415.1397,216.1094,64.27684,47.21706
418593,413.6882,214.4332,64.19828,46.9946
418609.8,412.4053,212.902,64.12848,46.78975
418625.6,411.2104,210.9973,64.06314,46.53273
418644.5,410.1689,209.438,64.00595,46.3205
418659.3,408.9743,207.8871,63.94006,46.10775
418676.8,407.723,206.2395,63.8707,45.87995
418693.6,406.5748,204.7246,63.80676,45.66882
418710.7,406.0433,203.4335,63.77707,45.48761
418725.6,405.3738,202.2954,63.73957,45.32692
418742.7,404.3612,201.2916,63.68267,45.18441
418760.1,403.108,200.3678,63.61193,45.05264
418777.3,402.1652,199.4862,63.55847,44.92631
418792.7,401.2216,198.8846,63.50477,44.83978
418809.4,400.3886,198.5813,63.4572,44.79607
418826.4,399.0445,198.3386,63.3801,44.76104
418842.4,397.5954,197.8372,63.29651,44.68851
418861.6,396.4074,197.3432,63.22762,44.6169
418878,395.2294,196.8451,63.15898,44.54452
418897,393.8906,196.6048,63.08058,44.50952
418911.4,392.4477,196.4417,62.99561,44.48575
418927.2,390.8029,195.9736,62.89813,44.41741
418942.1,389.3304,195.2837,62.81032,44.31641
418961.9,388.3138,194.6552,62.74939,44.2241
418976.9,387.6451,194.1246,62.70917,44.14592
418994.6,386.9244,193.5322,62.6657,44.05842
419009.6,386.1643,193.152,62.61972,44.00211
419026.7,385.5794,193.084,62.58424,43.99203
419043.3,384.8865,193.1122,62.54209,43.99621
419059.8,384.0058,193.3557,62.48835,44.03229
419076,382.8361,193.7095,62.41668,44.08464
419093.1,382.0198,193.9218,62.36646,44.116
419109.3,381.5604,194.2619,62.33812,44.16617
419127.2,381.0761,194.6956,62.30819,44.23003
419143.6,380.3198,195.2395,62.26132,44.30993
419159.3,379.3555,195.9515,62.20135,44.41419
419175.3,378.2083,196.8596,62.1297,44.54662
419194.3,377.0434,197.8233,62.0566,44.68651
419211.2,375.8263,198.8205,61.97985,44.83055
419226.2,374.3179,199.6902,61.88418,44.95559
419243.1,372.4846,200.5451,61.76709,45.07797
419259.9,370.7995,201.2635,61.65868,45.18042
419276.3,368.7881,202.1144,61.52828,45.30128
419293.3,367.0313,203.0708,61.41347,45.4365
419310.3,365.3902,203.9739,61.30546,45.56361
419326.8,364.1918,205.0021,61.22612,45.70761
419344.9,363.0521,206.0145,61.15028,45.84869
419360,361.6182,207.1114,61.05436,46.00074
419375.3,359.3898,208.701,60.90411,46.2196
419396.4,357.9917,209.9487,60.80912,46.39019
419411.7,357.3478,211.5652,60.76518,46.60962
419428.2,356.7606,213.6199,60.72501,46.88599
419447,356.3006,215.6192,60.69347,47.1522
419462.5,355.6278,217.8754,60.64722,47.44944
419477.6,355.0217,219.9894,60.60544,47.72494
419495.8,354.6823,222.4934,60.582,48.04753
419510.8,354.7827,225.8728,60.58894,48.47659
419528,355.1739,229.1281,60.61594,48.88313
419545.2,355.9395,231.968,60.66867,49.23248
419560.6,356.9907,235.0176,60.74076,49.60221
419577,357.9133,237.8707,60.80378,49.94312
419594.7,358.9329,240.8173,60.87313,50.29019
419611.1,359.9178,243.4296,60.93984,50.59372
419628.3,361.0462,246.0233,61.01593,50.89126
419643,361.9838,248.7975,61.07887,51.20536
419662.7,362.2632,251.5219,61.09758,51.50971
419677.1,361.8996,254.4805,61.07323,51.83567
419694.2,361.9691,257.372,61.07789,52.14975
419710.4,362.6832,260.4237,61.12566,52.47649
419726.2,363.6426,264.0798,61.18962,52.86165
419743.8,363.8535,267.5394,61.20365,53.21992
419764.9,363.9339,270.1609,61.20899,53.48747
419777.4,364.6,272.9633,61.25319,53.76979
419795.4,364.8391,275.9058,61.26903,54.0622
419812.1,365.2433,278.4618,61.29576,54.31291
419829.4,365.5726,280.933,61.3175,54.55243
419848.9,365.4817,281.8906,61.3115,54.64449
419865.3,365.1772,282.8483,61.29139,54.73615
419881.3,364.0647,284.0698,61.21768,54.85245
419895.5,364.3791,284.4124,61.23854,54.88496
419908.8,363.6221,286.2569,61.18826,55.05903
419929,362.9398,287.5424,61.1428,55.17947
419946.9,361.0401,288.6185,61.01551,55.27973
419961.1,358.7788,290.0894,60.86267,55.41596
419978.6,357.2721,291.8784,60.76001,55.58041
419995.1,355.4406,293.8778,60.63433,55.76256
420013,353.8312,295.3799,60.52307,55.8983
420030.9,351.5934,297.0633,60.3671,56.04931
420049,350.1573,298.1793,60.26621,56.14876
420062.9,348.979,299.3885,60.18296,56.25595
420079.6,348.0516,300.7939,60.11715,56.37978
420095.3,346.8593,302.8181,60.03214,56.55673
420113.7,345.6033,304.701,59.94211,56.71986
420129.6,344.0819,306.452,59.83241,56.8703
420147.7,342.6614,307.9142,59.72932,56.99501
420163.4,341.0824,309.2086,59.61398,57.1047
420179.1,339.5086,310.641,59.49823,57.22535
420197.9,338.3382,312.1941,59.41162,57.35528
420213.7,337.2163,313.8377,59.3282,57.49178
420228.8,336.0352,315.804,59.23991,57.65375
420250.3,334.7856,317.3821,59.14602,57.7827
420264.9,333.9967,318.8699,59.08648,57.90345
420278.4,333.1503,320.8073,59.02236,58.05946
420296.6,332.3096,322.7845,58.95844,58.2173
420312.9,331.6171,324.5078,58.90561,58.35372
420330.1,331.5927,326.293,58.90374,58.49395
420345.6,331.3592,328.1268,58.88588,58.63684
420362.4,331.382,329.8065,58.88763,58.7667
420379.4,331.6764,331.436,58.91013,58.89176
420395.1,331.8709,332.9256,58.92499,59.00529
420410.7,331.623,334.1564,58.90605,59.09855
420428.2,331.1469,335.2425,58.86964,59.18041
420443.5,330.8544,336.4148,58.84723,59.26834
420462.9,330.9185,337.3367,58.85214,59.33717
420479.2,331.1895,337.6406,58.8729,59.3598
420495.1,331.5242,338.0532,58.89851,59.39047
420513.3,331.5723,338.196,58.90218,59.40107
420529.4,332.0807,337.9451,58.94099,59.38244
420545.2,332.6351,337.8971,58.98321,59.37887
420561.7,333.2294,337.7946,59.02836,59.37125
420578.8,333.95,337.4958,59.08294,59.34902
420597.5,334.5238,337.1896,59.12628,59.32621
420611.3,334.8556,336.7281,59.15129,59.29176
420628.3,335.1834,336.4933,59.17597,59.27421
420645.1,335.494,336.2689,59.19932,59.25742
420662.3,335.9248,336.0483,59.23164,59.2409
420679.4,336.8904,335.9288,59.30389,59.23195
