Time Stamp(ms),Intersection,,Angle,
,x,y,x,y
713561.4,304.6364,258.2939,56.71429,52.24896
713576.9,304.1837,258.2639,56.67518,52.24574
713592.4,303.8287,258.1516,56.64447,52.23367
713610.5,303.5271,258.1599,56.61833,52.23457
713627.1,303.0808,258.1877,56.57958,52.23755
713643.9,302.5774,258.2993,56.53577,52.24953
713661.3,301.9769,258.434,56.4834,52.264
713679.3,301.5207,258.5343,56.44351,52.27476
713693.3,301.0691,258.6544,56.40394,52.28764
713710.6,300.6877,258.7975,56.37046,52.30297
713727.2,300.2917,258.981,56.33563,52.32261
713743.8,300.0236,259.1203,56.31202,52.33752
713760.4,299.7982,259.2326,56.29213,52.34953
713777.4,299.4802,259.2053,56.26405,52.34661
713797.7,299.1808,259.1167,56.23758,52.33714
713811.1,298.9549,259.0808,56.21759,52.33329
713827.4,298.7924,259.1436,56.20319,52.34001
713843.9,298.6737,259.1553,56.19267,52.34127
713863,298.5773,259.0842,56.18411,52.33366
713879.3,298.3819,259.0853,56.16677,52.33378
713896.3,298.0076,259.2126,56.1335,52.34739
713911.1,297.6398,259.6013,56.10075,52.38891
713926.8,297.3303,259.7557,56.07315,52.40537
713944.3,297.3248,259.6203,56.07266,52.39093
713960.8,297.3541,259.4846,56.07527,52.37646
713979.5,297.343,259.6786,56.07428,52.39716
713995.4,297.5368,259.9302,56.09157,52.42397
714011.1,297.6104,260.3528,56.09813,52.46895
714026.4,297.7003,260.801,56.10614,52.51655
714043.6,297.739,261.3293,56.10959,52.57253
714059.9,297.5209,261.9584,56.09015,52.63899
714075.7,297.1708,262.815,56.05891,52.72917
714093.9,296.8333,263.765,56.02875,52.82875
714110.7,297.052,264.6858,56.0483,52.92483
714125.3,296.9791,265.7209,56.04178,53.03234
714142.9,296.3607,266.7585,55.98643,53.13957
714159.9,296.1049,267.7245,55.96348,53.23893
714176.1,296.0427,268.828,55.9579,53.35186
714193.5,295.7801,269.7469,55.93431,53.44545
714210.9,295.4135,270.451,55.90133,53.51687
714229.4,294.9224,271.1497,55.85706,53.58752
714244.6,294.4858,271.8493,55.81762,53.65802
714261.5,293.7465,272.6122,55.75065,53.73463
714278.1,292.8643,273.4198,55.67043,53.81543
714293.5,292.1041,274.2994,55.60105,53.90308
714311.5,291.4211,275.3562,55.5385,54.0079
714329.3,290.7448,276.3568,55.47636,54.10666
714344.6,289.8586,277.4118,55.39465,54.21029
714361.8,288.8238,278.4865,55.2988,54.31532
714379.3,287.8318,279.5095,55.20649,54.41479
714395.6,286.9632,280.7075,55.1253,54.53069
714412.7,286.3378,282.2447,55.06664,54.67842
714428.2,285.7549,284.0333,55.0118,54.84898
714445.8,284.8156,286.4883,54.92313,55.08076
714463.4,283.817,288.7065,54.82843,55.28791
714480,282.9117,291.1414,54.7422,55.51282
714495.4,282.3162,294.2264,54.68526,55.79415
714514,281.7363,296.662,54.62968,56.01341
714529.6,280.77,298.7496,54.53671,56.19939
714546.1,279.8385,300.5951,54.44669,56.36232
714563.2,279.2162,301.8549,54.38633,56.47274
714579.9,278.591,302.9117,54.3255,56.56488
714601.5,277.7211,304.2626,54.24057,56.68201
714615.9,276.8602,305.1964,54.15617,56.76254
714630,275.8491,306.0513,54.05661,56.83598
714646.8,274.8128,307.0592,53.95406,56.92219
714663.4,273.5023,307.8546,53.82367,56.98994
714680.8,272.4697,308.7557,53.72034,57.06639
714695.2,270.9687,309.6997,53.56923,57.14616
714712.7,268.5272,310.6153,53.32113,57.22319
714730.6,266.4954,311.4079,53.11243,57.28962
714746.3,264.3633,311.9795,52.89123,57.33737
714762.9,262.121,312.5767,52.65614,57.38714
714780.8,259.7064,312.4388,52.40011,57.37566
714795.6,257.4985,312.512,52.16338,57.38175
714810.9,254.605,312.9716,51.84929,57.41997
714829.9,252.3003,313.0361,51.59592,57.42533
714845.3,249.9872,313.195,51.33876,57.43852
714862.3,247.6478,313.4451,51.07571,57.45926
714879.5,245.6642,313.6893,50.85029,57.4795
714893.9,243.1525,314.1129,50.56171,57.51454
714911.6,240.79,314.4534,50.287,57.54265
714928.5,238.5525,314.7719,50.02387,57.56891
714947.9,236.6112,314.9975,49.79321,57.58749
714961.2,234.8309,315.2827,49.57974,57.61094
714977.9,233.0382,315.5959,49.36287,57.63667
714994.7,231.5134,315.9059,49.1769,57.6621
715010.4,230.258,316.1354,49.02271,57.6809
715027.4,229.004,316.3774,48.86776,57.70071
715048,228.2739,316.2964,48.77709,57.69409
715061,228.0111,316.2143,48.74437,57.68737
715078.1,227.5314,316.2747,48.68454,57.69231
715095.4,227.0413,316.0243,48.62328,57.67181
715111,226.7867,315.549,48.59139,57.63282
715128.3,226.7049,314.8992,48.58113,57.5794
715147.3,226.5251,314.4213,48.55858,57.54
715161.6,226.2817,313.6388,48.52801,57.47531
715181.7,225.6441,312.6006,48.44778,57.38913
715197.4,225.3177,311.5745,48.4066,57.30355
715212.8,224.8443,310.4571,48.34676,57.2099
715230.5,224.8993,309.0928,48.35373,57.09491
715246.6,225.267,307.9975,48.4002,57.00208
715263.4,225.63,306.6049,48.446,56.88338
715281.4,226.339,305.2436,48.53521,56.76661
715297.8,226.2788,303.3033,48.52765,56.5989
715314.4,226.745,302.0736,48.58615,56.49184
715331.4,227.4188,300.4694,48.67048,56.35126
715344.4,228.3013,298.9843,48.78049,56.22019
715364.8,229.0287,297.2516,48.87082,56.06613
715381.6,229.444,295.3965,48.92223,55.89979
715396.7,230.3124,293.9913,49.02942,55.77285
715412.9,230.7803,292.2014,49.08698,55.60994
715429.8,231.4287,290.2438,49.16652,55.43021
715447.9,232.0882,288.617,49.24717,55.27959
715466.3,232.2262,286.9197,49.26401,55.12122
715482.9,232.231,285.6526,49.26459,55.00217
715498.6,232.2081,284.0048,49.2618,54.84628
715512.9,232.36,282.0798,49.28032,54.66262
715531.9,232.5201,280.5215,49.29984,54.51273
715545.6,233.0869,278.8483,49.36879,54.35056
715561.6,233.5873,277.5058,49.4295,54.21949
715577.8,233.9158,276.1623,49.46928,54.0875
715597.6,234.2083,274.7958,49.50463,53.95238
715613.3,234.7421,273.4342,49.56904,53.81686
715631.3,235.6777,272.3701,49.68152,53.71035
715645.7,236.8461,271.2688,49.82124,53.59954
715661.6,237.7737,270.2464,49.9316,53.49614
715678.3,238.9611,269.168,50.07214,53.38653
715695.8,239.9205,268.503,50.1851,53.31866
715713.9,241.0388,267.5551,50.31609,53.22154
715730.1,242.6704,266.798,50.50591,53.14364
715748.7,244.2437,266.0313,50.68752,53.06448
715766.9,245.8704,265.2755,50.87383,52.98614
715778.8,247.4284,264.5049,51.05088,52.90599
715794.4,249.444,263.7611,51.27795,52.82834
715814.8,251.8393,263.122,51.5449,52.7614
715831.4,254.4739,262.6076,51.83495,52.70737
715849.3,256.985,262.269,52.10796,52.67173
715865.5,259.5349,261.7721,52.38182,52.61932
715881.8,262.5006,261.1643,52.69611,52.55506
715898.5,265.6864,260.5088,53.02877,52.48553
715915.4,269.493,259.87,53.41962,52.41756
715931.9,273.8586,259.1422,53.8592,52.33987
715949,277.8544,258.637,54.25361,52.28577
715965.4,281.7453,258.2648,54.63054,52.24583
715982.9,285.5737,257.8339,54.99473,52.1995
716000.8,289.243,257.5254,55.33768,52.16629
716016.5,292.6383,257.3842,55.64983,52.15106
716030.4,296.5677,257.4693,56.00497,52.16024
716048.8,300.183,257.6941,56.32606,52.18446
716066.3,303.8481,258.0235,56.64614,52.2199
716083.5,307.4209,258.1856,56.95303,52.23733
716101.1,310.8339,258.4909,57.24154,52.2701
716116.4,314.2154,258.8024,57.523,52.30349
716132.3,317.9601,259.2722,57.82971,52.35376
716150.8,321.1616,259.6812,58.08784,52.39743
716166.1,324.5996,260.2731,58.36096,52.46047
716183.6,328.0213,260.9182,58.62865,52.52898
716199.8,331.4474,261.662,58.89263,52.60769
716217.2,334.61,262.1969,59.13278,52.66413
716233.4,337.4672,262.5981,59.34689,52.70637
716249.8,340.5997,262.9598,59.57856,52.74438
716266.3,343.8,263.439,59.812,52.79463
716282.8,346.8254,263.9824,60.02972,52.85147
716300.6,349.5299,264.45,60.22194,52.90026
716316.7,352.2164,264.9684,60.41067,52.95424
716333.3,354.9218,265.3344,60.59855,52.99226
716350,357.6115,265.3014,60.78319,52.98883
716367.3,360.1895,265.4554,60.95819,53.00482
716382.2,362.8476,265.621,61.13664,53.02199
716400,365.0305,265.6997,61.28169,53.03014
716416.2,367.3769,265.9061,61.43612,53.05152
716432,369.5058,266.0372,61.57493,53.06508
716449,371.7713,266.0901,61.7213,53.07056
716465.8,374.227,265.9501,61.87839,53.05608
716482.6,376.2725,265.6487,62.00803,53.02486
716500,378.2281,265.4881,62.13094,53.00821
716516.3,380.3097,265.4611,62.26069,53.00541
716532.1,382.2909,265.4609,62.38315,53.00539
716550,384.0661,265.4974,62.49203,53.00917
716566.4,385.3743,265.5189,62.57177,53.0114
716583.4,386.1625,265.5337,62.61961,53.01294
716599.7,386.6414,265.5568,62.64859,53.01533
716615.1,387.0912,265.4858,62.67577,53.00797
716631.6,387.8086,265.445,62.71901,53.00373
716648.2,388.4962,265.4821,62.76034,53.00759
716665.8,389.1226,265.6302,62.79789,53.02295
716684.8,389.5762,265.5871,62.82502,53.01847
716702.8,389.9852,265.4218,62.84943,53.00133
716717.1,390.6353,265.2156,62.88816,52.97993
716731.9,391.5951,264.9615,62.94516,52.95353
716750.1,392.2753,264.7358,62.98542,52.93004
716766.4,393.3058,264.711,63.0462,52.92746
716783.7,394.0948,264.6552,63.09257,52.92165
716797.9,395.084,264.6364,63.15049,52.9197
716814.1,396.2082,264.6625,63.21603,52.92241
716832.1,396.9863,264.7265,63.26123,52.92908
716850.3,397.3312,264.7124,63.28122,52.9276
716864,397.971,264.7823,63.31822,52.93489
716881.7,398.5736,264.8463,63.35299,52.94154
716897.4,399.3758,264.8919,63.39914,52.94628
716913.8,400.1034,265.008,63.44087,52.95835
716930.4,400.6164,265.1377,63.47022,52.97184
716947.3,401.3685,265.0822,63.51314,52.96606
716963.6,402.6206,265.4148,63.58432,53.00061
716980.6,403.2953,266.3036,63.62252,53.09262
716997.6,403.998,266.9308,63.6622,53.15732
717012.9,404.8494,267.6359,63.71012,53.22983
717031.4,405.501,268.1569,63.7467,53.28324
717047.5,406.2793,268.7492,63.79026,53.34381
717065,406.9311,269.2962,63.82663,53.39959
717080.9,407.7499,269.9817,63.8722,53.46928
717097.5,408.6227,270.7843,63.9206,53.5506
717117.9,409.7652,271.8257,63.98372,53.65564
717134.9,410.895,273.0983,64.04585,53.7833
717149.8,411.6991,274.4377,64.0899,53.91683
717164.1,412.5736,276.1249,64.13766,54.08381
717180.8,413.4677,278.2702,64.18631,54.29422
717197.9,414.1921,280.0511,64.2256,54.46727
717213.6,414.9915,281.9821,64.26884,54.65326
717234.5,415.9153,283.8176,64.31863,54.82849
717250.8,417.0472,285.7532,64.37939,55.01164
717269.1,417.7383,287.9398,64.41636,55.21655
717285.2,417.9176,289.801,64.42594,55.38932
717302.2,417.9151,291.7324,64.4258,55.56703
717317.9,417.5792,293.8208,64.40786,55.75739
717334.9,417.2264,295.801,64.38899,55.93619
717350.3,416.7032,297.8355,64.36095,56.11818
717367.8,416.3183,299.4333,64.34029,56.25992
717383.4,416.2037,300.5691,64.33414,56.36003
717401.1,416.2525,302.1787,64.33675,56.50102
717420,416.2104,303.3484,64.3345,56.60283
717433.9,416.3742,304.6398,64.34329,56.71458
717450.7,417.0096,306.3373,64.37738,56.86049
717469,417.5463,308.0902,64.4061,57.00996
717485.1,417.8638,309.6998,64.42307,57.14616
717500.7,418.1556,311.334,64.43864,57.28344
717519,418.4279,313.1051,64.45316,57.43106
717533.1,418.3308,314.9064,64.44798,57.57999
717548.1,417.9902,316.6039,64.42981,57.71923
717565.2,417.6994,318.1437,64.41428,57.84462
717584.8,417.4995,319.2507,64.40359,57.93422
717600.1,417.2188,319.947,64.38858,57.99035
717615.5,416.8909,320.5549,64.37102,58.03922
717631.7,416.6449,320.7667,64.35783,58.05621
717648.6,416.2754,320.9107,64.33799,58.06776
717664.9,415.9605,320.8003,64.32106,58.0589
717682.1,415.3403,320.1052,64.28766,58.00308
717698.6,414.5127,319.5528,64.24296,57.95859
717717.4,413.6114,319.0437,64.19411,57.9175
717735.3,412.6874,318.6375,64.14386,57.88463
717753.3,411.881,318.4539,64.09985,57.86977
717770.8,411.1253,318.3591,64.05848,57.86208
717788.2,410.1561,318.2794,64.00525,57.85562
717806.3,409.0379,318.2854,63.94358,57.85611
717820.1,407.8504,318.0695,63.87778,57.83859
717836.3,406.7014,317.8791,63.81382,57.82313
717852.3,405.7466,317.669,63.76046,57.80605
717871.3,404.8446,317.3499,63.70986,57.78009
717886.9,403.8128,316.9251,63.65175,57.74546
717903.3,402.8369,316.2935,63.59657,57.69385
717920.2,401.9519,315.567,63.54635,57.6343
717938.9,401.2244,314.7425,63.50493,57.56648
717953.4,400.2457,313.7882,63.44902,57.48768
717972.7,399.1456,312.746,63.38591,57.40122
717987.8,398.0506,311.7162,63.32282,57.31539
718003.7,397.1003,310.595,63.26784,57.22149
718019.1,396.1596,309.2966,63.21321,57.11214
718036.8,395.0677,308.1288,63.14954,57.01324
718052.6,393.6935,307.0083,63.069,56.91784
718069.1,392.177,305.6961,62.97961,56.8055
718085.9,390.85,304.3721,62.90093,56.69147
718102.3,389.2978,302.9223,62.80837,56.5658
718119.9,387.4799,301.2612,62.69921,56.42078
718135.2,385.6147,299.4404,62.58638,56.26054
718152.6,384.087,297.6576,62.49332,56.10234
718169.2,382.8149,295.7231,62.41538,55.92918
718187.1,381.7628,293.7744,62.35061,55.75318
718203.8,380.7571,291.9917,62.28843,55.59077
718219.3,379.599,290.1359,62.21652,55.42025
718236.6,378.5283,288.1201,62.14972,55.23336
718253,377.5962,286.3423,62.09134,55.06705
718269.6,376.8678,284.7616,62.04555,54.91803
718285.3,376.1071,283.2168,61.99759,54.7713
718301.2,375.1812,281.6402,61.93901,54.62046
718321.6,374.4284,280.1914,61.89121,54.48084
718334.6,373.8822,279.1549,61.85643,54.38037
718350.4,373.4604,278.0033,61.82952,54.26815
718368.8,373.3261,277.3636,61.82095,54.20557
718385,373.3633,276.6036,61.82332,54.13095
718402.4,373.5127,276.0474,61.83286,54.07617
718419.9,373.8087,275.656,61.85175,54.03754
718438.2,374.1309,275.2747,61.87227,53.99983
718454.7,374.8118,275.0489,61.91557,53.97747
718471.4,375.399,274.7279,61.9528,53.94564
718486.9,376.5776,274.3386,62.02727,53.90698
718503.5,377.9702,273.9394,62.11479,53.86725
718521.4,379.316,273.5977,62.19889,53.83318
718536.8,380.8095,273.3001,62.29168,53.80347
718554.8,382.4707,272.9245,62.39422,53.76591
718570.9,384.082,272.5564,62.49301,53.72903
718587.3,385.5909,272.2428,62.58493,53.69757
718602.6,386.8925,271.8514,62.66377,53.65823
718619.9,388.3574,271.4146,62.75201,53.61424
718636.6,389.8964,270.8601,62.84414,53.55827
718651.9,391.2645,270.3388,62.92555,53.5055
718668.9,392.6929,269.8476,63.01008,53.45567
718685.8,393.9604,269.4639,63.08468,53.41666
718705.3,394.8902,269.047,63.13916,53.3742
718719.6,395.7302,268.6909,63.1882,53.33786
718735.1,396.7934,268.3712,63.25004,53.30518
718752.8,397.7573,268.15,63.30587,53.28254
718769.7,398.6989,267.9861,63.36021,53.26574
718786.3,399.4406,267.7454,63.40286,53.24107
718803.4,399.8794,267.5754,63.42804,53.22362
718818.9,400.3172,267.5438,63.45311,53.22038
718835.9,400.8285,267.6818,63.48234,53.23454
718852.6,401.2462,267.8214,63.50617,53.24886
718868.8,401.6443,267.8658,63.52885,53.25341
718886.9,402.1074,267.8785,63.55519,53.25472
718907.3,402.3611,267.8551,63.5696,53.25232
718920.8,402.5415,267.7934,63.57983,53.24599
718938.1,402.7705,267.6986,63.59281,53.23627
718952.9,403.1798,267.4697,63.61599,53.21276
718969.9,403.842,267.1931,63.6534,53.18432
718985.7,404.7668,266.9558,63.70548,53.1599
719002.6,405.5745,266.7392,63.75082,53.13758
719019.1,406.3663,266.6385,63.79512,53.1272
719035,407.5237,266.4802,63.85962,53.11086
719053.2,408.5078,266.509,63.91425,53.11384
719069.2,409.4742,266.3989,63.96767,53.10247
719086.4,410.3158,266.301,64.01404,53.09236
719102.9,411.2368,266.2441,64.0646,53.08648
719121.1,412.4627,266.4445,64.13161,53.10717
719139.4,413.4617,266.6359,64.18598,53.12693
719153.8,414.5228,266.9026,64.2435,53.15442
719170.9,415.7855,267.3401,64.31165,53.19944
719187.8,416.9205,267.7725,64.3726,53.24384
719206.4,417.6762,268.5041,64.41304,53.31877
719226.5,418.4107,269.0663,64.45223,53.37616
719241,419.2748,269.7016,64.4982,53.44083
719256.5,419.8782,270.4366,64.5302,53.51542
719270.7,420.5653,271.2681,64.56656,53.59946
719290,420.8755,272.0966,64.58294,53.68288
719306.3,421.0215,272.901,64.59064,53.76356
719321.8,421.2905,273.6247,64.60482,53.83588
719338,421.4456,274.3365,64.61299,53.90676
719353.7,421.4445,275.2041,64.61294,53.99285
719372.4,421.3415,275.8171,64.60751,54.05345
719389.3,421.2262,276.1998,64.60143,54.09119
719405.9,421.1716,276.7058,64.59856,54.141
719422.4,420.8727,277.1566,64.58279,54.18527
719438.8,420.4576,277.6679,64.56087,54.23536
719454.3,419.8456,278.17,64.52847,54.28444
719472,419.1371,278.5253,64.49088,54.3191
719488.7,418.1259,278.7219,64.43706,54.33825
719506.4,417.3258,279.0069,64.39431,54.36598
719522.6,416.5436,279.4494,64.35239,54.40896
719538.9,415.884,279.8967,64.31694,54.45232
719555.3,415.2248,280.4402,64.28143,54.50488
719572.6,414.4695,281.1306,64.24062,54.57146
719589.9,413.492,281.7276,64.18763,54.62884
719605.6,412.5808,282.279,64.13805,54.68171
719622.6,411.839,282.8414,64.09756,54.73549
719640.4,411.001,283.5912,64.05167,54.80696
719656.8,410.2054,284.4075,64.00796,54.88448
719672,409.2714,285.3844,63.95648,54.97688
719688.8,408.1169,286.5143,63.89258,55.0832
719706.1,407.095,287.6084,63.83577,55.18563
719721.3,406.2036,288.9347,63.78603,55.30909
719738.3,405.3048,290.681,63.7357,55.4705
719753.9,404.1943,292.5572,63.67327,55.64244
719771.9,403.0187,294.5689,63.60687,55.82513
719788.1,401.4544,297.2158,63.51804,56.06292
719804.8,399.7233,300.2923,63.41908,56.33568
719823.3,398.2534,302.9703,63.33453,56.56998
719840.1,396.7289,306.221,63.24629,56.85052
719856.3,395.424,309.7233,63.17035,57.14815
719870.9,393.5716,314.1985,63.06184,57.52161
719888.4,391.4941,317.9164,62.93917,57.82616
719906.1,389.2456,321.299,62.80525,58.09884
719922.7,387.547,323.9399,62.70326,58.30888
719938.1,385.9536,326.4347,62.60695,58.50503
719955.3,383.7327,329.1965,62.47165,58.71965
719971.3,381.0977,331.9132,62.30952,58.92822
719989.2,378.8975,333.9881,62.17279,59.08583
720005.4,377.3447,335.8605,62.07554,59.22682
720021.9,375.9462,337.6785,61.98742,59.36261
720039.8,374.6743,339.2965,61.90683,59.48257
720054.7,373.0805,340.7704,61.80525,59.59109
720071.8,371.5174,341.8874,61.70496,59.67288
720088.5,369.9504,342.8557,61.60377,59.74346
720105.2,368.265,343.4824,61.49418,59.78897
720121.6,366.4871,344.4119,61.37774,59.85626
720138.9,364.8504,345.2463,61.26978,59.91643
720155.4,363.0023,345.9611,61.14696,59.96781
720171.8,361.2117,346.3378,61.02705,59.99482
720187.9,359.1242,346.6259,60.88611,60.01544
720206.8,357.2482,347.0612,60.75837,60.04657
720221.8,355.5519,347.6057,60.64199,60.0854
720239.2,353.8788,348.3574,60.52637,60.13887
720256.2,352.1875,348.9258,60.40865,60.1792
720271.6,350.4008,349.3132,60.28336,60.20662
720289,348.6867,349.5734,60.16225,60.22501
720307.6,347.061,349.86,60.04655,60.24524
720321.8,345.3936,350.367,59.92704,60.28098
720339.4,343.7227,350.7895,59.8064,60.3107
720355.3,341.8852,350.9341,59.67272,60.32086
720371.8,340.4025,351.0388,59.56407,60.32821
720388.3,338.9509,351.3562,59.45702,60.35048
720405.3,337.5297,351.9671,59.35154,60.39325
720424.6,336.1906,352.4895,59.25156,60.42974
720441.7,334.8432,352.7781,59.15036,60.44986
720457.1,333.3338,352.8755,59.03628,60.45664
720475.1,331.8327,352.765,58.92207,60.44895
720490.1,330.1532,352.7727,58.79338,60.44948
720506.4,328.2943,352.9885,58.64983,60.46451
720523.2,326.5969,353.0201,58.51771,60.46671
720539.1,325.2856,352.6142,58.41496,60.43843
720555.4,323.9322,352.3737,58.30827,60.42166
720572.1,322.2843,352.1022,58.1775,60.40269
720589.6,320.8904,352.0853,58.06613,60.40151
720605.9,319.7339,352.1201,57.97319,60.40395
720622.8,318.9445,351.9372,57.90947,60.39116
720640,318.0175,351.5774,57.83437,60.36598
720656.9,317.2933,351.3168,57.77547,60.34772
720672.3,316.4897,351.1438,57.70989,60.33558
720691.4,315.8912,351.0006,57.6609,60.32553
720706.8,315.3244,350.7761,57.61438,60.30976
720723.1,315.135,350.6869,57.5988,60.30349
720740.6,314.8577,350.5719,57.57598,60.29539
720757.2,314.7098,350.6539,57.56379,60.30116
720772.9,314.4787,350.5598,57.54473,60.29455
720790.9,314.3596,350.492,57.53491,60.28978
720807.8,314.1913,350.4515,57.52101,60.28693
720825.6,313.9688,350.458,57.50262,60.28738
720841.3,313.8388,350.4388,57.49187,60.28603
720858.4,314.0933,350.3753,57.51291,60.28156
720873.8,314.115,350.2688,57.51471,60.27406
720892.3,313.9097,350.2972,57.49773,60.27606
720909.1,313.6244,350.1892,57.47412,60.26846
720924.6,313.6006,349.9539,57.47215,60.25187
720940.5,313.7382,349.8104,57.48354,60.24174
720960.1,313.9034,349.5858,57.49722,60.22588
720975.3,314.032,349.5334,57.50785,60.22218
720989.6,314.2354,349.4911,57.52465,60.2192
721009.1,314.3437,349.3372,57.53359,60.20831
721025.8,314.6603,349.3396,57.55971,60.20848
721042.3,314.933,349.2553,57.58218,60.20252
