Time Stamp(ms),Intersection,,Angle,
,x,y,x,y
532045.2,300.1169,259.1647,56.32024,52.34227
532062.6,299.8727,259.1843,56.2987,52.34436
532080.9,299.6601,259.147,56.27995,52.34037
532095.3,299.4719,259.2678,56.26332,52.35329
532111.5,299.3209,259.4212,56.24998,52.36969
532130.1,299.0913,259.7484,56.22966,52.4046
532146.1,298.8572,260.0141,56.20893,52.43291
532162.7,298.7061,260.174,56.19553,52.44993
532179.9,298.6179,260.1841,56.18771,52.451
532197.9,298.5357,260.2347,56.18042,52.45639
532215.1,298.4402,260.3095,56.17194,52.46434
532230.3,298.0947,260.3803,56.14125,52.47187
532247.5,297.8347,260.3654,56.11811,52.47029
532263.8,297.7411,260.3378,56.10977,52.46735
532281,297.6118,260.2285,56.09825,52.45573
532300.3,297.5183,260.1058,56.08992,52.44268
532315.6,297.2707,260.0092,56.06783,52.43239
532331.3,297.1448,259.8238,56.05659,52.41264
532348.9,296.9146,259.6356,56.03601,52.39256
532363.8,296.6856,259.6607,56.01553,52.39524
532381.4,296.5244,259.7221,56.00109,52.40179
532399,296.3869,259.8523,55.98877,52.41567
532415.6,296.1832,260.1538,55.9705,52.44778
532434.4,295.9308,260.3886,55.94785,52.47276
532448.2,295.5681,260.7434,55.91525,52.51043
532466.4,295.168,261.1301,55.87921,52.55144
532483.4,294.9675,261.7729,55.86113,52.61941
532499.8,294.6199,262.4334,55.82974,52.68904
532515.9,294.2159,263.2023,55.79319,52.76982
532532,293.7304,264.2646,55.74919,52.88094
532548.3,293.2775,265.3067,55.70805,52.98939
532566,292.7222,266.4811,55.65748,53.11096
532582.8,291.8026,267.8149,55.57346,53.2482
532600.4,290.7034,268.9793,55.47255,53.36729
532616.3,289.6332,270.4565,55.37381,53.51742
532631.5,288.3846,271.9687,55.25798,53.67002
532648.7,287.1486,273.3622,55.14265,53.80968
532665.4,285.5915,274.9304,54.99641,53.96573
532682.4,284.1084,276.4519,54.85612,54.11602
532699.4,282.6421,277.9662,54.71645,54.26454
532715.4,280.9459,279.6877,54.55366,54.43208
532732.6,279.4164,281.2039,54.40576,54.57851
532750.1,277.7957,282.9718,54.24787,54.74793
532766.6,276.0707,284.8223,54.07847,54.92377
532783.4,274.1712,286.7109,53.89033,55.10165
532799.8,271.8231,288.9774,53.65538,55.31306
532814.9,269.8199,291.1107,53.45286,55.51001
532832.4,268.3468,293.0037,53.30268,55.68313
532849.5,266.6126,294.9397,53.12453,55.85862
532866.6,264.6242,296.9754,52.91843,56.04145
532883.1,262.0788,299.2831,52.65168,56.24664
532900,259.1614,301.532,52.34192,56.4445
532917.4,257.2754,303.3481,52.13932,56.60279
532932.6,255.4207,305.2115,51.93828,56.76385
532950.9,253.4012,306.7258,51.7173,56.89371
532966.8,250.3563,308.6581,51.37999,57.05813
532983.4,247.2066,310.4462,51.02576,57.20898
532999.4,244.349,312.1968,50.69963,57.3555
533013.4,241.7561,313.831,50.39972,57.49122
533031,239.2715,315.2651,50.10874,57.6095
533048.7,236.9455,316.6238,49.8331,57.72086
533064.8,233.8685,318.0446,49.46355,57.83657
533082.1,230.9941,319.3139,49.11324,57.93932
533099.2,228.3562,320.2179,48.78733,58.01214
533115.1,225.8957,320.8734,48.47947,58.06476
533132.9,223.7755,321.5555,48.21115,58.11935
533149.8,221.1892,322.5003,47.88001,58.19469
533166.3,218.1648,323.51,47.48732,58.27486
533183.3,215.3029,324.6154,47.11025,58.36221
533200,212.4423,325.5632,46.72794,58.43676
533216.1,210.0442,326.1332,46.40321,58.48144
533231.4,207.2735,326.5867,46.02314,58.51691
533248.8,204.2,327.2158,45.59534,58.566
533266.5,201.2655,327.7438,45.18071,58.60709
533282.6,198.1402,328.3737,44.73237,58.65598
533301.7,195.013,328.6263,44.27669,58.67556
533316.8,191.827,328.7859,43.80506,58.68791
533333.4,188.8189,329.0877,43.35283,58.71125
533350.3,185.8281,329.6634,42.89641,58.75568
533365.8,182.9027,330.2287,42.44333,58.79919
533381.9,180.7615,330.425,42.10751,58.81428
533399.6,179.1413,330.2767,41.85101,58.80288
533414.9,178.202,329.4944,41.70135,58.74265
533432.1,177.3035,329.1484,41.55756,58.71593
533448.8,176.6033,328.7179,41.44503,58.68264
533466.2,175.7446,328.4555,41.30651,58.66233
533482.7,175.3539,327.9552,41.24331,58.62352
533499.8,175.2559,327.4238,41.22742,58.5822
533515.9,175.3631,326.6753,41.24478,58.52384
533532.4,175.3408,326.0659,41.24117,58.47617
533549.1,175.3821,325.1424,41.24787,58.4037
533569.6,175.4384,324.2919,41.25697,58.33669
533582.6,175.7489,323.1488,41.30722,58.24623
533599.9,176.1027,321.9147,41.36435,58.14804
533615,176.4072,320.4698,41.41346,58.03238
533632.1,176.8412,318.6494,41.4833,57.8856
533650.3,177.436,316.9308,41.5788,57.74591
533666.6,178.4808,314.5931,41.74585,57.55417
533683.6,179.1115,312.4852,41.84627,57.37952
533701.1,179.6342,309.872,41.92927,57.16068
533717.6,180.5088,306.724,42.06765,56.89356
533735.9,181.2857,303.7379,42.19005,56.6366
533754.9,182.0366,300.9474,42.30793,56.39326
533768,182.2651,298.2561,42.3437,56.15559
533785,182.3603,295.2735,42.3586,55.88871
533803.6,182.7445,293.0069,42.41866,55.68342
533818.2,183.3251,290.6268,42.50917,55.4655
533833.1,183.9163,287.9562,42.60106,55.21808
533851.2,184.1588,285.5614,42.63868,54.99357
533867.2,184.5467,283.095,42.69877,54.75969
533885.6,184.9303,280.891,42.75807,54.54837
533900.6,185.6983,278.6422,42.87645,54.33049
533917.1,186.3644,276.7051,42.97876,54.14093
533933.1,187.1278,274.989,43.09558,53.97153
533950,188.0049,273.0776,43.22928,53.78123
533971.9,188.7196,271.6483,43.33778,53.63778
533986.3,189.3521,270.5566,43.43348,53.52757
534000.4,190.2606,269.246,43.57042,53.39448
534017.8,191.2336,268.1906,43.71638,53.28669
534032.9,192.1792,267.2171,43.85756,53.1868
534050.3,192.8341,266.239,43.95495,53.08595
534067.2,193.4052,265.4673,44.03962,53.00605
534084.9,194.1919,264.6229,44.15585,52.91828
534102.9,194.8396,263.8719,44.2512,52.83992
534121.9,195.404,263.2417,44.33405,52.77395
534138.3,195.8808,262.6538,44.40385,52.71223
534153.4,196.4528,262.0735,44.48736,52.65113
534171.3,196.9296,261.504,44.5568,52.591
534187.8,197.375,260.9426,44.62152,52.53156
534204.3,197.936,260.4692,44.70283,52.48132
534221.8,198.4872,259.9456,44.78249,52.42561
534238.2,198.97,259.4616,44.85208,52.37399
534253.1,199.348,258.9169,44.90646,52.31576
534271.3,199.7738,258.3927,44.96759,52.25956
534287.6,200.4882,257.7998,45.06985,52.19584
534306.3,200.9857,257.1692,45.14085,52.12786
534320.5,201.6263,256.5436,45.23201,52.06022
534337,202.3612,255.8042,45.33623,51.98
534352.9,203.0314,255.1337,45.43095,51.90701
534370.8,203.6715,254.4925,45.5211,51.83698
534388.3,204.3072,253.9094,45.61036,51.77311
534405.6,204.949,253.3231,45.70019,51.70871
534421.6,205.7053,252.6546,45.80568,51.63506
534439.1,206.5102,251.9477,45.91751,51.5569
534454,207.2662,251.2593,46.02213,51.48055
534471.5,208.1905,250.7058,46.14951,51.41896
534488.5,209.0542,250.1482,46.26801,51.35675
534505.8,209.8931,249.683,46.38261,51.30473
534520.9,210.8736,249.1991,46.51596,51.25048
534539.3,211.8161,248.825,46.64351,51.20845
534554.6,212.5568,248.3974,46.74335,51.16032
534573.3,213.1276,247.9884,46.82003,51.1142
534588.4,213.8756,247.6471,46.92018,51.07563
534605.8,214.368,247.4887,46.9859,51.0577
534621.6,214.816,247.3849,47.04557,51.04596
534637.6,214.9458,247.4083,47.06283,51.04861
534651.6,215.2794,247.3439,47.10713,51.04132
534670.4,215.6392,247.2749,47.15485,51.03349
534687.3,216.0595,247.1983,47.21046,51.02483
534704.7,216.3422,247.0195,47.24781,51.00455
534721.3,216.4726,246.8275,47.26502,50.98276
534737.7,216.9089,246.7252,47.32252,50.97113
534753.2,217.5353,246.5127,47.40484,50.94698
534770.8,218.1737,246.4216,47.48849,50.93663
534789,219.2672,246.2925,47.63114,50.92193
534803.5,220.1851,246.0221,47.75029,50.89113
534820.1,221.1572,245.8397,47.87589,50.87032
534836.6,222.2207,245.7398,48.01259,50.85893
534853,223.6691,245.863,48.19762,50.87299
534870.1,225.0343,246.1926,48.37079,50.91055
534886.7,226.3266,246.549,48.53365,50.95111
534903,227.4749,247.0518,48.67749,51.00821
534919.4,228.6462,247.7235,48.82336,51.08427
534942.1,229.7399,249.0625,48.95881,51.23515
534956.8,230.5437,250.8598,49.05788,51.43612
534970.4,231.0047,253.3685,49.11454,51.7137
534989.7,231.3184,255.9572,49.153,51.99662
535005.5,231.8544,258.8678,49.21861,52.3105
535022.3,232.6056,261.951,49.31025,52.63821
535040,233.1605,264.5993,49.37773,52.91582
535057.1,233.4801,266.9985,49.41651,53.1643
535074.3,233.6582,268.8289,49.43809,53.35195
535090.8,233.5168,270.6427,49.42096,53.53627
535105.7,233.4632,272.6396,49.41446,53.73737
535127.4,233.8127,274.0022,49.45681,53.8735
535140.4,234.223,275.3604,49.50641,54.00831
535159.6,234.5891,276.3501,49.55059,54.106
535171.6,234.691,277.1828,49.56289,54.18784
535189,234.6709,277.9019,49.56046,54.25826
535205.9,234.9011,278.1939,49.58819,54.28677
535223.1,235.1597,278.7534,49.61931,54.34131
535240.9,235.1881,279.069,49.62272,54.37202
535255.6,235.0077,279.3958,49.60102,54.40376
535270.9,234.8322,279.8573,49.5799,54.44851
535289.3,234.7492,279.953,49.5699,54.45778
535305.2,234.765,280.1826,49.5718,54.47998
535323,234.8487,280.4616,49.58188,54.50695
535339.5,235.0126,280.9485,49.60162,54.55392
535355.1,234.9989,281.3239,49.59996,54.59005
535372.1,234.8723,281.6334,49.58472,54.6198
535388.7,234.8008,282.1262,49.57611,54.66708
535407.8,234.913,282.6203,49.58962,54.71436
535422.9,234.9296,283.1346,49.59163,54.76347
535440.3,234.9391,283.5833,49.59277,54.8062
535457.4,235.2303,283.9142,49.62779,54.83767
535472.9,235.6106,284.0306,49.67346,54.84873
535489.6,236.235,283.9582,49.74826,54.84185
535506.1,237.0794,283.642,49.84904,54.81179
535522,237.8114,283.2457,49.93607,54.77406
535539.5,238.5021,282.6955,50.01792,54.72155
535555.3,239.5486,281.8387,50.14137,54.6395
535572.7,240.4735,281.0478,50.24996,54.56348
535588.6,241.5946,279.7669,50.38092,54.43975
535609.9,242.5283,278.5563,50.48944,54.32212
535626.3,243.6763,277.06,50.62218,54.17579
535641.4,244.7143,275.5751,50.74157,54.02954
535657.4,245.9005,273.7185,50.87726,53.84523
535672.6,247.5183,271.0109,51.06106,53.57351
535690.9,249.1141,268.0421,51.24094,53.27148
535707.5,250.9832,264.558,51.44985,52.91153
535723.7,253.366,260.6807,51.71344,52.50378
535740.6,255.9025,257.4837,51.99068,52.16179
535758.6,258.9056,254.6964,52.31455,51.85928
535773.9,262.8016,251.9173,52.72776,51.55354
535791.6,265.8449,249.0095,53.04519,51.22919
535809.1,268.1397,246.7757,53.28148,50.97688
535825.4,270.337,244.9115,53.50532,50.76419
535841.7,272.5684,243.2853,53.73024,50.57706
535857.6,274.7304,241.7722,53.94589,50.40159
535873.7,276.9922,240.3509,54.16913,50.2356
535892.9,278.8773,238.9394,54.35338,50.06958
535908.9,281.1412,237.3429,54.57247,49.88042
535928.8,283.272,235.9157,54.77657,49.71004
535942.4,285.4387,234.7033,54.982,49.56437
535959.6,287.5852,233.2417,55.18347,49.38758
535974.6,289.9576,231.7103,55.4038,49.20098
535992.7,292.4967,230.3615,55.63691,49.03547
536012.8,294.8749,229.2162,55.85278,48.89405
536026.1,296.9358,226.9617,56.03791,48.6133
536043.5,298.5977,225.8483,56.18592,48.4735
536059.8,300.2594,224.8983,56.33278,48.3536
536076.8,302.2503,223.6061,56.50727,48.18959
536092.9,303.9099,222.9054,56.65149,48.10022
536110,305.6835,222.3578,56.80442,48.03017
536126.1,307.2655,221.7464,56.93979,47.95171
536145.4,308.7383,221.2036,57.06493,47.88186
536159.8,310.1583,220.7908,57.18478,47.82862
536175.5,311.5555,220.3568,57.30196,47.77253
536191.9,312.7202,219.8976,57.39908,47.71303
536209.5,313.8644,219.3198,57.49399,47.63799
536226.3,314.8647,218.809,57.57655,47.57146
536243.4,315.9901,218.4932,57.669,47.53025
536260.3,317.2124,218.3577,57.76888,47.51255
536277.4,318.4466,218.5661,57.86917,47.53977
536292.6,319.6649,218.8553,57.96764,47.5775
536309.8,320.9135,218.8494,58.06797,47.57673
536326.8,322.1756,218.5205,58.16884,47.53381
536343.9,323.2666,218.3393,58.25557,47.51014
536359.6,324.5343,218.318,58.35582,47.50736
536376.2,325.8901,218.6803,58.4624,47.55467
536393.5,327.3315,218.761,58.57501,47.5652
536409.9,328.9659,218.9092,58.70183,47.58453
536425.6,330.73,218.7714,58.83769,47.56656
536443.5,332.25,218.7867,58.9539,47.56856
536459.8,333.9328,218.839,59.08165,47.57538
536475.6,335.6622,219.0813,59.21194,47.60694
536492.5,337.3094,219.3811,59.33514,47.64595
536509.6,339.2824,219.8762,59.48152,47.71025
536526.3,341.2274,220.4641,59.62461,47.78641
536542.9,343.0487,220.7832,59.75749,47.82764
536559.8,344.6342,221.1518,59.87231,47.87519
536577,346.2487,221.4471,59.98843,47.91322
536593.3,347.837,222.0658,60.10188,47.99272
536610.4,349.5474,222.8308,60.22317,48.09069
536626.8,351.571,223.727,60.36552,48.20499
536643.8,353.8297,224.6712,60.52297,48.32485
536661.3,355.9879,225.5143,60.67199,48.4314
536680.3,358.3111,226.3564,60.83087,48.5374
536698.6,360.5836,227.0709,60.98478,48.62698
536713.3,363.3481,227.9325,61.17001,48.73458
536728,366.0358,228.9027,61.34804,48.85519
536744.9,368.6871,230.1888,61.5217,49.01418
536762.2,371.0056,231.4949,61.67198,49.17462
536778.1,373.9144,233.2892,61.85848,49.39335
536793.3,376.8838,234.9609,62.04655,49.59539
536810.6,380.1146,236.8068,62.24858,49.81655
536828.9,382.9861,238.4732,62.42588,50.01449
536845.6,386.2766,240.4253,62.62652,50.24432
536862.8,389.1743,242.4228,62.80098,50.4772
536880.5,391.7454,244.4577,62.95407,50.71211
536896.3,394.0728,246.4452,63.09128,50.9393
536911,396.2999,248.2864,63.22137,51.14781
536928.4,398.939,250.2416,63.37403,51.36719
536946.2,401.5581,252.0689,63.52394,51.57032
536966.1,403.7697,253.4329,63.64932,51.72079
536980,406.2749,254.9193,63.79001,51.88361
536995,409.9439,256.7596,63.99357,52.0836
537011.9,413.191,258.7186,64.17127,52.29451
537030,416.5818,260.7609,64.35444,52.51229
537047.3,419.9671,262.4585,64.53491,52.69168
537062.3,423.4883,264.1445,64.72013,52.8684
537078.5,426.6912,265.9508,64.88643,53.05615
537095,429.514,267.7829,65.03131,53.24492
537112.4,432.0954,269.7485,65.16243,53.4456
537129.4,434.4355,271.937,65.28019,53.66684
537145.3,437.2478,274.4154,65.42033,53.9146
537164.3,439.4248,277.0098,65.5278,54.17086
537178.9,441.0739,280.0608,65.60862,54.46821
537195.8,442.7254,282.6182,65.68906,54.71416
537212.7,443.9374,284.7312,65.74777,54.91515
537228.8,445.1672,287.0567,65.80708,55.13406
537244.6,446.4529,289.2651,65.86879,55.33974
537261.4,447.206,291.1921,65.90479,55.51748
537279.7,447.6323,292.6394,65.92513,55.64993
537294,447.9516,294.2248,65.94035,55.794
537311.3,448.5308,295.912,65.9679,55.94616
537329.6,448.8916,297.2371,65.98503,56.06483
537345.4,448.4066,298.1625,65.96199,56.14727
537362,447.9591,298.8119,65.9407,56.20491
537378.9,447.7631,299.2744,65.93137,56.24586
537394.4,447.6012,300.1721,65.92365,56.3251
537413.1,447.3011,300.9785,65.90934,56.39598
537431.1,446.8023,301.6183,65.88551,56.45205
537447.1,446.5649,302.2415,65.87415,56.5065
537467,446.2109,302.9435,65.85719,56.56765
537482.3,445.783,303.6153,65.83667,56.62597
537497.5,445.0905,304.2583,65.80338,56.68163
537515.9,444.3509,304.6593,65.76774,56.71626
537532.8,443.6369,305.2258,65.73324,56.76508
537549.4,443.001,305.8593,65.70243,56.81951
537569.3,442.4286,306.4658,65.67464,56.87148
537581.8,441.7174,307.3047,65.64002,56.94312
537597.9,440.9281,307.7865,65.60149,56.98415
537615.9,440.5404,308.041,65.58253,57.00578
537633.8,440.3317,308.4339,65.57231,57.03913
537649.4,439.9846,308.8995,65.55529,57.07856
537666.9,439.473,309.2607,65.53017,57.1091
537685.4,439.0407,309.3771,65.5089,57.11893
537697.8,438.6902,309.4318,65.49164,57.12356
537714,438.2537,309.4666,65.4701,57.1265
537733.3,437.9562,309.5136,65.4554,57.13046
537749.1,437.5956,309.6486,65.43756,57.14185
537765.1,437.4612,309.5303,65.43091,57.13187
537781.9,437.4799,309.2476,65.43184,57.108
537800.3,437.0188,309.1124,65.40897,57.09658
537817.7,436.5106,308.9489,65.38374,57.08274
537836,435.8814,308.7557,65.35243,57.06639
537849.1,435.1554,308.4429,65.31621,57.03989
537866.2,434.647,308.1976,65.29079,57.01907
537882.3,433.9122,307.964,65.25395,56.99923
537897,432.9411,307.8042,65.20511,56.98565
537915,432.0277,307.7574,65.15901,56.98167
537933.7,431.1794,307.7404,65.11605,56.98022
537950.8,430.4346,307.7134,65.07822,56.97792
537967.8,429.3564,307.6574,65.02326,56.97316
537981.9,428.0538,307.4396,64.95657,56.95462
537999.5,426.8643,307.0443,64.89536,56.92091
538014.2,425.9914,306.8844,64.85027,56.90726
538032.4,425.2858,306.8358,64.81371,56.90311
538047.8,424.1595,306.6476,64.75515,56.88703
538066.1,423.0545,306.3391,64.69745,56.86063
538080.4,421.9145,305.9383,64.63766,56.82629
538097.3,420.9277,305.4153,64.58569,56.78137
538113.6,419.9059,305.0223,64.53167,56.74755
538130.2,418.4729,304.5864,64.45555,56.70997
538147.7,416.9606,304.3221,64.37476,56.68715
538163.1,415.3213,303.8636,64.28663,56.64748
538180.6,413.8136,303.6252,64.20509,56.62683
538197.9,412.4532,303.5593,64.13109,56.62112
538213.3,410.4395,303.4086,64.02084,56.60804
538230.1,407.9912,303.4508,63.8856,56.6117
538247.6,404.8533,303.5833,63.71035,56.6232
538264,400.0081,304.1023,63.43541,56.66814
538280.5,394.2747,304.7313,63.10312,56.72247
538297.1,387.5074,305.7064,62.70087,56.80638
538312.8,378.5928,307.8333,62.15376,56.98812
538329.5,370.3729,309.4462,61.63111,57.12477
538347.7,362.7972,310.9191,61.13327,57.24868
538363.3,355.1144,312.7468,60.61184,57.40129
538379.7,347.5822,314.6222,60.08372,57.55657
538398,340.3473,316.254,59.56001,57.69061
538414.4,332.9548,317.5424,59.00752,57.79575
538432.5,327.4229,318.5793,58.58213,57.87992
538448.1,321.6831,319.6629,58.12955,57.96747
538466.4,315.6364,321.2134,57.64,58.092
538483.1,309.2657,322.9094,57.10953,58.22722
538500.3,302.9821,324.1583,56.571,58.32614
538517.3,298.2613,324.8241,56.15605,58.37865
538532.2,292.7521,325.2766,55.66021,58.41425
538550.9,286.2725,326.2521,55.0605,58.49075
538567.6,280.5385,327.5606,54.51438,58.59284
538585.2,275.9635,328.8872,54.06789,58.69575
538601.3,271.6839,330.1642,53.64137,58.79423
538616.1,267.4271,331.1794,53.20839,58.87213
538632.4,263.0194,332.1971,52.75064,58.94986
538649.8,258.4887,333.0157,52.26987,59.01213
538666.4,254.2023,333.8335,51.80522,59.07413
538684.3,250.7303,334.5117,51.42169,59.12537
538700.3,246.9355,335.7167,50.99501,59.21604
538717.4,243.2905,336.7892,50.57766,59.29633
538732.6,239.4612,337.7323,50.13108,59.36662
538751.9,235.8877,338.7936,49.70669,59.44537
538766.7,232.5047,339.7747,49.29795,59.51785
538783,229.5329,341.0199,48.93323,59.6094
538799.1,226.4938,342.9115,48.55464,59.74752
538814.8,222.8189,345.0101,48.08917,59.89943
538831.3,219.2873,347.1122,47.63377,60.05021
538849,216.4032,348.8035,47.25586,60.17053
538866.7,214.1124,350.7128,46.95181,60.30531
538882.9,211.772,352.8044,46.63756,60.45169
538899.1,209.5012,355.1799,46.32913,60.61636
538915.6,207.2081,357.5311,46.0141,60.77771
538933,205.0681,359.5931,45.71684,60.91788
538950.8,203.2507,361.524,45.46186,61.04803
538966.8,201.9668,362.8159,45.28035,61.13452
538984.7,200.6362,363.9291,45.09099,61.20868
539002.7,199.2573,364.8929,44.89341,61.27259
539019.4,197.9635,365.7738,44.70681,61.33078
539031.9,196.0769,366.652,44.43251,61.38858
539049.5,194.5981,367.16,44.21569,61.42192
539064.9,193.6122,367.4394,44.07025,61.44022
539083.5,192.7756,367.3388,43.94626,61.43363
539100.1,191.9087,366.8302,43.81725,61.40028
539117.9,190.9672,366.5996,43.67649,61.38513
539133.9,189.8525,366.745,43.50898,61.39468
539151.9,189.2163,366.9266,43.41296,61.4066
539168.2,188.7249,366.9192,43.33857,61.40612
539186.3,188.3499,366.7901,43.2817,61.39764
539201.7,187.6558,366.8729,43.17614,61.40308
539219.3,186.7145,367.028,43.03239,61.41325
539234.3,185.4858,367.3479,42.84374,61.43423
539260.5,184.33,367.2432,42.66522,61.42737
539277.2,183.7112,367.2056,42.56921,61.4249
539288.9,183.0594,367.3756,42.46778,61.43604
539303,182.3913,367.6079,42.36346,61.45124
539318.3,181.826,367.6801,42.27492,61.45597
539335.4,181.3397,367.5215,42.19855,61.44559
539351.8,181.4565,366.9592,42.21691,61.40874
539368.8,181.3429,366.565,42.19905,61.38286
539387.4,180.998,366.0471,42.14478,61.34879
539404.2,180.7715,365.4168,42.10909,61.30722
539420.5,180.7765,365.0414,42.10987,61.28241
539436.1,180.8723,364.6229,42.12498,61.25471
539452,181.0079,364.0436,42.14634,61.21628
539470.9,180.9983,363.3985,42.14482,61.17337
539488.7,180.8887,362.8515,42.12756,61.1369
539506.1,181.0994,362.2177,42.16075,61.09453
539522.2,181.0579,362.0269,42.15421,61.08176
539536.2,181.0213,361.8417,42.14845,61.06935
