Time Stamp(ms),Intersection,,Angle,
,x,y,x,y
1529247,300.8517,255.9804,56.38486,51.99914
1529264,300.7583,256.0133,56.37666,52.00272
1529282,300.6238,255.9886,56.36484,52.00003
1529297,300.5506,255.9462,56.3584,51.99542
1529313,300.4618,255.9249,56.3506,51.99311
1529332,300.4892,255.8563,56.35301,51.98566
1529348,300.4783,255.8202,56.35205,51.98174
1529365,300.4044,255.7961,56.34555,51.97911
1529381,300.2396,255.731,56.33104,51.97204
1529397,300.0685,255.7279,56.31597,51.97171
1529413,300.0537,255.6702,56.31466,51.96542
1529432,300.0259,255.7359,56.31222,51.97258
1529447,299.854,255.8729,56.29706,51.98746
1529465,299.7878,256.0134,56.29121,52.00272
1529481,299.7283,256.1974,56.28597,52.02269
1529497,299.5609,256.4368,56.27119,52.04864
1529513,299.382,256.6226,56.25538,52.06877
1529531,299.1394,256.7669,56.23392,52.08438
1529548,298.9089,257.0335,56.21351,52.11321
1529566,298.7122,257.3476,56.19608,52.14711
1529581,298.5047,257.7004,56.17767,52.18514
1529607,298.1544,258.1541,56.14655,52.23394
1529622,297.8253,258.5022,56.11728,52.27131
1529633,297.491,258.8915,56.08748,52.31304
1529648,297.0289,259.3533,56.04623,52.36243
1529665,296.5263,259.8317,56.00126,52.41348
1529682,295.8108,260.3159,55.93707,52.46502
1529699,295.2164,260.6935,55.88357,52.50513
1529714,294.5366,261.3007,55.82221,52.56949
1529732,293.9733,261.9106,55.77122,52.63395
1529749,293.0568,262.754,55.68796,52.72276
1529764,291.8317,263.6554,55.57613,52.81729
1529783,290.4355,264.5789,55.44789,52.91371
1529800,288.6724,265.688,55.28474,53.02893
1529816,286.9685,266.8191,55.12579,53.14582
1529832,285.0925,268.0012,54.94931,53.2673
1529850,282.9938,269.2728,54.75004,53.39721
1529867,281.1334,270.393,54.57172,53.511
1529884,279.0382,271.4711,54.36903,53.61993
1529900,277.1116,272.4308,54.18085,53.71643
1529917,275.3742,273.2433,54.00968,53.7978
1529931,273.0128,274.3011,53.77475,53.90324
1529950,270.9152,275.3309,53.56383,54.0054
1529967,268.4669,276.576,53.31496,54.12823
1529984,265.9478,277.6414,53.05584,54.23277
1530003,264.1528,278.3163,52.86927,54.29871
1530018,261.8251,279.1138,52.62492,54.37638
1530033,258.9549,279.9085,52.31982,54.45346
1530050,256.0808,280.8158,52.01004,54.54112
1530065,253.0545,282.0794,51.67914,54.66259
1530084,250.0628,282.6926,51.34721,54.72127
1530102,247.7606,283.3747,51.08846,54.78635
1530117,245.353,284.0014,50.81473,54.84595
1530133,242.4282,284.5931,50.47783,54.90207
1530151,239.6277,285.1624,50.15068,54.95592
1530168,236.713,285.7986,49.80537,55.01592
1530185,234.1379,286.3927,49.49613,55.07179
1530201,231.65,286.8467,49.19361,55.11438
1530217,229.3448,287.2772,48.90996,55.15468
1530234,226.8605,287.6974,48.60062,55.19394
1530252,224.8914,287.9865,48.35273,55.22091
1530269,223.2731,288.173,48.14717,55.23829
1530285,221.8639,288.0269,47.96681,55.22468
1530302,220.5541,288.1183,47.79804,55.23319
1530319,219.1598,288.2267,47.61717,55.24329
1530333,217.6553,288.5795,47.42059,55.27611
1530349,216.5388,288.9123,47.27376,55.30702
1530367,214.8967,289.1085,47.0563,55.32522
1530383,213.565,288.8226,46.87864,55.29869
1530401,212.8897,287.9925,46.78809,55.22147
1530418,212.2679,286.9971,46.70446,55.12848
1530433,211.4272,286.2266,46.59096,55.05618
1530450,210.3566,285.4921,46.44573,54.98704
1530467,209.0938,284.8821,46.27343,54.92942
1530482,207.6266,284.417,46.07186,54.88538
1530501,205.7699,284.1575,45.81467,54.86078
1530517,203.6822,283.9179,45.52261,54.83803
1530535,201.4402,283.7554,45.20555,54.82258
1530550,198.7348,283.6519,44.8182,54.81273
1530567,196.2532,283.4518,44.45825,54.79369
1530583,194.0099,283.1235,44.12901,54.76241
1530599,191.5655,282.6589,43.76601,54.71805
1530616,189.1425,282.167,43.40179,54.67098
1530634,186.6472,281.7151,43.02209,54.62765
1530653,184.6008,281.3812,42.70714,54.59557
1530670,182.8746,280.9861,42.43896,54.55754
1530682,180.5993,280.2691,42.08193,54.48835
1530701,178.9624,279.5227,41.82257,54.41608
1530717,177.5563,278.4931,41.59808,54.31596
1530734,176.3842,277.5092,41.40974,54.21982
1530750,175.1386,276.6643,41.20841,54.13692
1530767,173.7408,276.1324,40.98097,54.08455
1530784,172.5096,275.4968,40.77935,54.02181
1530801,171.7071,274.8083,40.64726,53.95362
1530817,171.4142,274.2045,40.59893,53.89364
1530833,170.9503,273.6569,40.52221,53.83909
1530850,170.7799,273.0099,40.49399,53.77445
1530867,170.9009,272.4432,40.51404,53.71769
1530883,170.9893,271.9864,40.52867,53.6718
1530900,171.2345,271.5356,40.56923,53.62643
1530917,171.4786,271.3494,40.60956,53.60767
1530932,171.7249,271.1043,40.6502,53.58293
1530950,172.26,270.8239,40.73832,53.55461
1530971,172.8248,270.5629,40.83109,53.5282
1530985,173.5564,270.554,40.95086,53.5273
1531000,174.2487,270.3271,41.0638,53.50432
1531018,174.9169,270.0105,41.17244,53.47221
1531035,175.4061,269.4845,41.25174,53.41876
1531051,176.0642,268.9209,41.35814,53.36134
1531068,176.8099,268.2408,41.47828,53.29183
1531084,177.7314,267.7631,41.62611,53.24288
1531104,178.3602,267.6294,41.72661,53.22916
1531118,179.6134,267.4001,41.92596,53.20561
1531133,180.9803,267.1303,42.142,53.17786
1531150,182.3414,266.5668,42.35565,53.1198
1531167,183.8865,265.6896,42.59644,53.02909
1531184,185.7296,264.901,42.88126,52.94723
1531201,188.1057,264.076,43.24461,52.86126
1531218,190.6576,263.3184,43.63007,52.782
1531235,193.6033,262.4983,44.06894,52.69587
1531250,197.0551,261.7224,44.57505,52.61408
1531268,199.8749,261.0258,44.98207,52.54039
1531285,202.2847,260.4462,45.32539,52.47888
1531301,204.6789,259.9404,45.66242,52.42506
1531318,206.6148,259.6578,45.932,52.39494
1531332,208.4173,259.4543,46.18067,52.37322
1531350,209.5019,259.3652,46.32922,52.3637
1531367,210.4733,259.0613,46.46159,52.33121
1531383,211.2121,258.5312,46.56183,52.27443
1531400,212.0969,257.8673,46.6814,52.20311
1531417,212.9153,257.5876,46.79153,52.17299
1531433,213.3609,256.9954,46.8513,52.10909
1531451,214.0605,256.0655,46.94488,52.00838
1531468,214.261,254.7605,46.97163,51.86628
1531488,214.2112,253.8283,46.965,51.76422
1531503,213.9579,252.9251,46.93118,51.66489
1531520,213.6474,251.7431,46.88967,51.53424
1531538,213.3256,250.5407,46.84658,51.40056
1531553,212.877,249.1409,46.7864,51.24395
1531570,212.4125,247.9484,46.72392,51.10968
1531584,211.9313,246.807,46.65906,50.98043
1531600,211.579,245.7114,46.61149,50.85568
1531617,211.3447,244.7054,46.57979,50.74055
1531633,211.0958,243.9072,46.54608,50.6488
1531650,210.6396,243.1989,46.48419,50.56707
1531668,210.2468,242.6676,46.43079,50.50558
1531685,209.8379,242.1351,46.37508,50.4438
1531701,209.3436,241.5931,46.30759,50.38074
1531718,208.8959,241.025,46.24632,50.31447
1531735,208.4634,240.1639,46.18701,50.21367
1531755,208.4169,239.2627,46.18063,50.10771
1531771,208.2756,238.5272,46.1612,50.02088
1531789,207.8502,237.7779,46.10268,49.93211
1531804,207.5508,236.9308,46.06141,49.83134
1531821,207.0526,236.0906,45.9926,49.73099
1531838,206.8615,235.3594,45.96617,49.64331
1531853,206.7814,234.4409,45.95509,49.53273
1531871,206.6958,233.3376,45.94323,49.39922
1531888,206.5718,232.1118,45.92604,49.25005
1531905,206.585,230.82,45.92787,49.09185
1531922,206.584,229.5096,45.92773,48.93035
1531940,206.632,228.2095,45.93439,48.76907
1531956,206.6345,227.1143,45.93474,48.6324
1531972,206.6186,225.9304,45.93253,48.48383
1531989,206.8156,224.7045,45.95982,48.32907
1532006,207.14,223.587,46.0047,48.18716
1532021,207.4797,222.3531,46.05161,48.02956
1532036,207.8511,221.0736,46.1028,47.86511
1532052,208.2825,219.6652,46.16215,47.68287
1532070,208.6918,218.5115,46.21835,47.53264
1532086,209.2885,217.3162,46.30006,47.37608
1532104,209.976,216.2268,46.39391,47.23257
1532120,210.8078,215.2264,46.50703,47.1001
1532136,211.9871,214.2227,46.6666,46.96653
1532153,213.2702,213.2315,46.83915,46.83397
1532171,215.4521,212.6485,47.13004,46.75568
1532187,218.1481,212.2633,47.48514,46.70384
1532204,221.3831,212.0953,47.90498,46.68119
1532221,224.8279,212.0307,48.34469,46.67249
1532241,227.8177,211.9565,48.72027,46.66247
1532256,230.58,212.0064,49.06235,46.6692
1532272,234.0835,211.9189,49.48956,46.6574
1532290,237.0047,212.6346,49.84015,46.75381
1532308,239.5411,212.8243,50.14049,46.77931
1532322,242.1145,213.1295,50.44141,46.82027
1532339,244.6619,213.7532,50.73556,46.90382
1532353,247.6183,214.636,51.07237,47.02162
1532371,250.9297,215.5888,51.4439,47.14816
1532388,254.3174,216.6396,51.81782,47.28704
1532406,257.3528,217.9074,52.14768,47.45364
1532423,260.2957,219.4974,52.46288,47.66108
1532439,263.5963,221.6325,52.8111,47.93707
1532455,267.7529,224.462,53.24183,48.29834
1532473,270.9507,226.6061,53.56742,48.56873
1532488,274.805,229.7669,53.95329,48.96215
1532506,278.0103,232.3276,54.26884,49.27637
1532522,280.8054,234.7624,54.54012,49.57149
1532539,283.6959,237.0984,54.81692,49.85131
1532554,286.8456,239.875,55.11428,50.17974
1532571,291.0594,242.1741,55.50529,50.44833
1532588,293.9046,244.5385,55.76499,50.7214
1532605,295.7624,246.4656,55.93272,50.94163
1532622,298.1114,248.2153,56.14273,51.1398
1532638,300.9341,249.8363,56.3921,51.32188
1532654,304.0646,251.7771,56.66488,51.53801
1532671,307.0012,253.6827,56.91724,51.74823
1532688,309.3584,255.7661,57.11736,51.97585
1532705,311.8167,258.1407,57.32379,52.2325
1532723,314.1781,260.1631,57.51992,52.44877
1532738,316.5296,262.3602,57.71315,52.68134
1532755,319.0866,264.9097,57.92097,52.94814
1532772,321.5729,267.4625,58.12075,53.21202
1532788,324.3837,270.4715,58.34393,53.51894
1532806,326.8862,273.0226,58.5403,53.77572
1532823,329.3708,275.4446,58.73311,54.01664
1532839,331.5286,277.5588,58.89884,54.22469
1532855,334.4148,280.4851,59.11806,54.50922
1532875,337.2733,283.3911,59.33245,54.78791
1532888,340.2731,286.0764,59.55455,55.04207
1532908,342.4465,288.4035,59.71367,55.25974
1532924,344.3001,290.0798,59.84819,55.41508
1532943,347.138,292.0632,60.05204,55.59731
1532957,350.2598,293.7361,60.27343,55.74971
1532973,353.1004,295.1913,60.4723,55.88131
1532991,355.2812,296.6518,60.62334,56.0125
1533008,357.0463,297.8843,60.74457,56.12252
1533025,358.452,298.6647,60.84046,56.19187
1533042,360.2719,299.4477,60.96376,56.26119
1533058,362.0264,300.356,61.08173,56.34129
1533073,363.6002,301.6242,61.1868,56.45257
1533089,364.9261,303.3805,61.27479,56.60561
1533106,366.2649,305.3679,61.36313,56.7773
1533123,367.2017,307.3882,61.42465,56.95023
1533142,367.8737,308.9867,61.46863,57.08595
1533157,368.5971,310.8586,61.51584,57.24361
1533173,369.438,313.1185,61.57054,57.43217
1533190,370.1581,315.2679,61.61722,57.60973
1533207,370.737,317.3892,61.65465,57.78328
1533225,371.2032,318.8206,61.68473,57.89946
1533241,371.8948,320.3816,61.72924,58.0253
1533258,372.5205,322.0044,61.76939,58.15519
1533277,373.0101,323.5796,61.80075,58.28037
1533297,373.1484,324.8871,61.80959,58.38361
1533309,373.5591,325.5706,61.83583,58.43734
1533324,373.6016,326.0182,61.83854,58.47243
1533343,373.3751,326.1938,61.82407,58.48619
1533358,373.0027,325.8883,61.80027,58.46226
1533373,372.8441,325.7094,61.79012,58.44823
1533391,372.5746,325.4919,61.77287,58.43116
1533409,372.3803,325.2927,61.76041,58.41552
1533425,372.6018,325.1781,61.77461,58.40651
1533441,373.0366,324.9036,61.80244,58.38491
1533457,373.4876,324.309,61.83126,58.33804
1533475,373.9809,323.5679,61.86272,58.27944
1533493,374.6602,322.975,61.90594,58.23243
1533509,375.5975,322.4839,61.96537,58.19339
1533527,376.8118,321.9295,62.04202,58.14922
1533542,377.7619,321.1893,62.10173,58.09007
1533558,378.726,320.5454,62.16208,58.03846
1533574,380.0159,319.7614,62.24245,57.9754
1533591,381.9593,318.8004,62.36273,57.89782
1533608,383.9875,318.0086,62.48724,57.83365
1533628,386.2547,317.1946,62.62519,57.76743
1533645,388.063,316.4344,62.73432,57.70537
1533665,390.1678,315.482,62.86033,57.62732
1533677,391.8027,314.8561,62.95746,57.57584
1533691,394.0348,313.8159,63.08905,57.48997
1533709,395.6971,312.8753,63.18627,57.41198
1533725,397.4335,311.5773,63.28714,57.30379
1533742,398.9769,310.2654,63.37621,57.19379
1533759,400.4122,309.2648,63.45855,57.10946
1533775,401.967,308.2466,63.54721,57.02324
1533790,403.593,307.2823,63.63934,56.94121
1533808,404.8976,306.4329,63.71284,56.86866
1533823,405.996,305.6924,63.77442,56.80518
1533840,406.8758,305.0788,63.82355,56.75242
1533857,407.8982,304.1405,63.88044,56.67145
1533874,408.7318,303.2756,63.92664,56.5965
1533892,408.9233,302.3185,63.93724,56.51321
1533908,408.8744,301.2998,63.93453,56.42417
1533925,408.938,300.5433,63.93805,56.35777
1533942,408.3171,299.8792,63.90368,56.29928
1533957,407.3463,299.2527,63.84976,56.24395
1533975,405.7361,298.8171,63.75987,56.20538
1533992,404.2168,298.3081,63.67453,56.16021
1534008,402.2487,297.4504,63.56321,56.08386
1534025,400.9331,296.5135,63.48831,56.00012
1534041,399.8768,295.5508,63.42789,55.91368
1534060,399.2747,294.3339,63.39333,55.80387
1534075,398.9143,293.1518,63.3726,55.69661
1534091,398.9055,292.0211,63.3721,55.59345
1534110,399.3153,291.079,63.39567,55.5071
1534125,399.4536,290.5542,63.40361,55.45882
1534141,399.6407,289.7786,63.41435,55.38726
1534158,399.8466,289.1522,63.42616,55.32927
1534173,400.0673,288.5262,63.4388,55.27116
1534196,400.3157,287.939,63.45303,55.21648
1534209,400.4006,287.4367,63.45788,55.16959
1534226,400.4991,286.9142,63.46352,55.12071
1534242,400.5598,286.4692,63.46699,55.07898
1534258,400.547,286.1591,63.46626,55.04984
1534274,400.4732,285.7618,63.46204,55.01246
1534292,400.3706,285.377,63.45617,54.97618
1534309,400.147,285.0294,63.44337,54.94335
1534326,400.2394,284.6764,63.44866,54.90996
1534343,400.3976,284.3341,63.45771,54.87753
1534360,400.5571,284.0831,63.46683,54.85371
1534375,401.0365,283.6401,63.49421,54.81161
1534391,401.4269,283.1812,63.51647,54.76791
1534409,401.7653,282.7432,63.53574,54.72611
1534424,402.2129,282.1455,63.56118,54.66892
1534441,402.8992,281.3599,63.6001,54.59352
1534460,403.5299,280.7673,63.63578,54.53645
1534475,404.5628,279.9529,63.69401,54.45777
1534491,405.4642,279.268,63.74464,54.39135
1534510,406.3835,278.4659,63.79609,54.3133
1534525,407.156,277.6946,63.83916,54.23798
1534542,408.0148,276.9637,63.88691,54.16634
1534559,409.0637,276.2484,63.945,54.09599
1534576,410.1401,275.5636,64.00437,54.0284
1534593,411.1107,275.1743,64.05768,53.98989
1534612,411.8752,274.9445,64.09953,53.96712
1534626,412.605,274.7206,64.13937,53.94492
1534643,413.0917,274.6362,64.16587,53.93654
1534660,413.432,274.4589,64.18437,53.91893
1534677,413.4821,274.4224,64.18709,53.9153
1534692,413.3488,274.3828,64.17985,53.91137
1534709,413.3131,274.3685,64.17791,53.90995
1534727,413.1807,274.5016,64.17071,53.92317
1534743,412.7916,274.6623,64.14954,53.93913
1534760,412.5873,274.7237,64.1384,53.94522
1534776,412.2768,274.8764,64.12147,53.96038
1534795,411.8672,275.0029,64.09909,53.97292
1534810,411.183,275.2927,64.06165,54.00161
1534828,410.485,275.4933,64.02334,54.02146
1534845,409.7239,275.6058,63.98145,54.03258
1534862,408.6731,275.8611,63.9234,54.05779
1534878,407.7736,276.1211,63.87352,54.08344
1534895,406.5587,276.34,63.80587,54.105
1534910,405.114,276.6758,63.72499,54.13805
1534928,404.0588,276.8388,63.66563,54.15407
1534943,402.8034,276.9365,63.59468,54.16367
1534961,401.3211,276.9401,63.51044,54.16402
1534978,400.1039,276.865,63.4409,54.15664
1534993,398.9127,276.9549,63.37251,54.16547
1535011,397.9746,276.9717,63.31843,54.16712
1535027,396.7986,276.8439,63.25034,54.15457
1535044,395.8791,276.4611,63.19688,54.11692
1535063,395.4781,276.2296,63.1735,54.09413
1535078,396.0356,275.9835,63.20599,54.06987
1535097,396.3274,275.8455,63.22297,54.05625
1535113,396.863,275.6584,63.25408,54.03778
1535128,397.7943,275.4354,63.30801,54.01573
1535145,398.7352,275.1277,63.3623,53.98528
1535163,399.8479,274.8555,63.42623,53.95831
1535180,400.8113,274.6334,63.48136,53.93626
1535198,402.4256,274.3154,63.57326,53.90466
1535213,403.6973,274.0419,63.64523,53.87746
1535228,405.792,273.8353,63.763,53.85687
1535243,407.5397,273.7709,63.86052,53.85046
1535261,409.2867,273.7151,63.95732,53.8449
1535277,410.7528,273.8548,64.03805,53.85882
1535294,411.7724,274.0949,64.09391,53.88273
1535312,412.5937,274.2777,64.13875,53.90092
1535328,413.0969,274.416,64.16615,53.91467
1535344,412.7937,274.5538,64.14965,53.92836
1535360,412.481,274.7143,64.13261,53.94429
1535378,411.7215,274.8335,64.09113,53.95612
1535393,410.2875,274.9355,64.01248,53.96623
1535410,409.2092,274.9563,63.95304,53.9683
1535426,408.0829,274.9764,63.89069,53.97029
1535444,406.6581,274.9517,63.81141,53.96784
1535460,405.3849,274.9063,63.74019,53.96334
1535475,403.8146,274.8026,63.65186,53.95306
1535493,402.4186,274.7847,63.57286,53.95128
1535510,400.575,274.98,63.46785,53.97064
1535527,398.289,275.0659,63.33658,53.97916
1535543,396.1673,275.0728,63.21366,53.97984
1535561,394.1607,274.9782,63.09643,53.97047
1535577,392.4194,274.7661,62.99394,53.94944
1535592,390.4772,274.8913,62.87875,53.96185
1535610,388.5176,275.0322,62.76163,53.97582
1535630,386.579,275.2999,62.64482,54.00233
1535647,384.6036,275.5414,62.52485,54.02622
1535662,382.4651,275.7281,62.39388,54.04467
1535677,380.1357,275.8663,62.24989,54.05831
1535692,377.5952,275.9376,62.09128,54.06535
1535710,375.4787,275.9054,61.95785,54.06216
1535727,373.5421,275.8988,61.83474,54.06151
1535744,371.7304,275.9596,61.71867,54.06752
1535761,369.8045,276.12,61.59431,54.08333
1535779,368.0115,276.3516,61.47763,54.10615
1535793,365.7768,276.5158,61.33098,54.12231
1535811,363.4816,276.4999,61.17891,54.12075
1535828,360.9349,276.3615,61.00844,54.10712
1535845,358.4427,276.2224,60.83982,54.09343
1535862,355.8239,276.0321,60.66071,54.07466
1535878,353.2249,275.7817,60.48096,54.04995
1535893,350.4082,275.467,60.28388,54.01886
1535911,347.5049,275.1962,60.07822,53.99207
1535927,344.0906,274.9397,59.83303,53.96665
1535953,340.6818,274.5261,59.58459,53.92561
1535966,338.3513,274.2777,59.41259,53.90092
1535978,335.3793,274.0035,59.1907,53.87364
1535995,332.0629,274.0459,58.93963,53.87785
1536013,328.9999,274.1337,58.70446,53.8866
1536029,326.1603,274.2507,58.48357,53.89823
1536045,322.9655,274.4315,58.23167,53.91621
1536062,320.1138,274.6159,58.00377,53.93453
1536080,317.7068,274.8686,57.80913,53.9596
1536095,315.5687,275.1974,57.63444,53.99219
1536112,313.6903,275.3639,57.47957,54.00866
1536130,312.6469,275.5069,57.39298,54.0228
1536145,312.8546,275.5156,57.41025,54.02366
1536161,313.2595,275.4756,57.44387,54.01971
1536178,313.6565,275.5847,57.47678,54.0305
1536194,314.0825,275.7881,57.51202,54.05058
1536216,314.6778,275.6866,57.56115,54.04057
1536228,315.8439,275.4273,57.65702,54.01493
1536244,318.0208,274.8563,57.83464,53.95838
1536261,320.2474,274.3305,58.01451,53.90617
1536280,323.4115,273.7363,58.26706,53.847
1536295,326.3527,273.271,58.49862,53.80056
1536312,330.1388,272.9411,58.79227,53.76757
1536330,334.0697,272.6246,59.09199,53.73587
1536346,338.3869,272.3795,59.41524,53.71129
1536363,343.0428,272.2722,59.75706,53.70053
1536379,346.8574,272.322,60.032,53.70552
1536395,350.9265,272.4202,60.32032,53.71538
1536413,354.7626,272.6971,60.58755,53.74314
1536430,358.6901,272.7062,60.85665,53.74405
1536446,362.6896,272.7266,61.12609,53.7461
1536462,367.0475,272.8582,61.41454,53.75928
1536481,370.8942,272.924,61.66479,53.76586
1536497,374.5427,272.8979,61.89847,53.76325
1536512,378.5125,272.908,62.14874,53.76426
1536530,382.271,272.9629,62.38193,53.76976
1536547,386.1396,272.8178,62.61822,53.75523
1536565,389.2587,272.5303,62.80603,53.72642
1536581,392.4049,272.2813,62.99308,53.70143
1536598,395.2477,271.8893,63.16005,53.66204
1536613,398.3474,271.4317,63.33995,53.61596
1536631,400.8181,270.964,63.48175,53.56876
1536648,402.8012,270.4649,63.59455,53.51828
1536664,404.2521,269.971,63.67652,53.4682
1536681,405.2377,269.3847,63.73193,53.4086
1536697,406.3161,268.7555,63.79232,53.34446
1536714,407.3245,267.9991,63.84855,53.26708
1536731,407.4678,267.2975,63.85652,53.19506
1536748,407.3477,266.3608,63.84983,53.09853
1536765,407.2888,265.5226,63.84656,53.01179
1536783,407.0523,264.6357,63.83339,52.91962
1536799,406.5415,263.6502,63.8049,52.81675
1536814,406.1201,262.5429,63.78136,52.70057
1536831,405.2706,261.6664,63.73378,52.60817
1536851,404.5344,260.8054,63.69242,52.51701
1536866,403.5947,260.0232,63.63944,52.43388
