Time Stamp(ms),Intersection,,Angle,
,x,y,x,y
1836077,294.4255,239.8855,55.81216,50.18098
1836094,292.9973,239.4426,55.68255,50.1289
1836110,291.8912,238.4099,55.58157,50.00701
1836127,291.0766,236.8043,55.50687,49.81625
1836144,290.5059,236.1055,55.45437,49.73277
1836160,290.048,236.2428,55.41215,49.74919
1836178,289.8392,236.684,55.39286,49.8019
1836193,289.8325,236.9356,55.39224,49.83191
1836210,290.0595,237.183,55.4132,49.86139
1836227,290.2561,236.948,55.43134,49.83339
1836243,290.414,237.056,55.4459,49.84626
1836260,290.7048,237.3834,55.47268,49.88522
1836278,290.8112,237.9321,55.48247,49.95041
1836293,290.9769,238.0911,55.49771,49.96925
1836311,291.0446,238.0235,55.50393,49.96124
1836327,291.1085,237.6614,55.5098,49.91827
1836345,291.0836,237.4622,55.50752,49.8946
1836362,291.0859,237.2455,55.50772,49.86883
1836378,291.1249,236.7136,55.51131,49.80544
1836394,291.0674,235.8539,55.50603,49.70263
1836411,290.9822,235.0952,55.4982,49.61154
1836428,290.825,234.4007,55.48375,49.52787
1836445,290.6913,233.759,55.47144,49.45031
1836461,290.2919,233.3529,55.43465,49.40108
1836479,289.8225,232.934,55.39132,49.35021
1836496,289.2298,232.5996,55.33646,49.30951
1836512,288.5232,232.1448,55.27087,49.25407
1836528,287.8732,231.7916,55.21035,49.21093
1836545,287.218,231.6581,55.14915,49.19461
1836563,286.6194,231.7772,55.09307,49.20917
1836578,286.0222,231.8669,55.03697,49.22013
1836595,285.39,231.7536,54.97741,49.20628
1836612,284.7433,231.4232,54.91629,49.16584
1836628,284.0733,231.3044,54.85279,49.15129
1836645,283.4286,231.0428,54.79148,49.11921
1836662,282.5549,230.9947,54.7081,49.1133
1836679,281.664,230.9174,54.62274,49.10382
1836694,280.5801,231.1067,54.51839,49.12704
1836712,279.756,231.1437,54.43869,49.13159
1836728,278.7471,231.005,54.3407,49.11457
1836745,277.2909,230.5519,54.19844,49.0589
1836763,275.6027,229.9886,54.03228,48.98951
1836779,273.7372,229.8255,53.8471,48.96938
1836795,271.7426,229.5934,53.64728,48.94071
1836813,269.885,229.2885,53.45947,48.903
1836829,268.0334,228.4275,53.2706,48.79618
1836845,266.3556,227.8411,53.098,48.72318
1836862,264.7663,227.4603,52.93322,48.67566
1836879,263.2046,227.4904,52.77007,48.67942
1836895,261.3523,227.3885,52.57495,48.66669
1836915,259.5697,227.1891,52.38554,48.64176
1836930,257.7142,227.0325,52.18663,48.62217
1836947,256.1117,226.6252,52.01339,48.57113
1836963,254.2835,226.0573,51.81411,48.4998
1836981,252.7548,225.6745,51.64611,48.4516
1836998,251.2487,225.5218,51.47937,48.43235
1837013,249.9286,225.0396,51.33221,48.37146
1837029,248.6743,224.8323,51.1915,48.34525
1837046,247.4026,224.3982,51.04796,48.29025
1837063,246.047,224.2915,50.89396,48.27671
1837079,244.8338,224.1404,50.75528,48.25753
1837096,243.3235,224.0751,50.58147,48.24924
1837115,241.9893,223.7532,50.42685,48.20832
1837130,240.4683,223.5354,50.24935,48.18059
1837146,239.1675,223.0412,50.09649,48.11757
1837165,237.9184,222.5071,49.94877,48.04929
1837180,236.5636,222.0981,49.78753,47.99687
1837197,234.8098,221.937,49.57719,47.97619
1837214,232.5312,221.4661,49.30119,47.91567
1837229,230.2924,221.068,49.02696,47.86439
1837248,228.2631,220.4987,48.77575,47.79088
1837264,226.2128,219.844,48.51935,47.70608
1837280,224.4769,219.3875,48.30023,47.64679
1837297,222.8863,218.9386,48.09779,47.58835
1837314,221.4677,218.7444,47.91587,47.56304
1837330,220.2197,218.4072,47.75477,47.51902
1837346,219.038,218.1192,47.60131,47.48135
1837365,217.7926,217.7024,47.43858,47.42677
1837382,216.4223,217.6843,47.25839,47.4244
1837398,215.1061,217.5107,47.08413,47.40162
1837414,213.6709,217.6299,46.8928,47.41726
1837430,212.1465,217.7401,46.6881,47.43171
1837447,210.6638,217.5397,46.48748,47.40542
1837465,209.3832,217.2212,46.31301,47.36359
1837480,207.9392,216.9718,46.11494,47.3308
1837498,206.8168,216.7134,45.95998,47.29677
1837513,205.6214,216.7129,45.79399,47.2967
1837531,204.5837,217.0082,45.6491,47.33559
1837546,203.5773,217.0426,45.50786,47.34011
1837565,202.6386,217.2521,45.37547,47.36766
1837581,201.6782,217.4401,45.23938,47.39235
1837598,200.7934,217.5729,45.11342,47.40978
1837613,199.8344,217.7177,44.97627,47.42877
1837629,198.8117,218.1004,44.82928,47.4789
1837646,197.8194,218.4064,44.68594,47.51891
1837663,196.5279,219.004,44.49832,47.59689
1837681,195.5491,219.1058,44.35532,47.61014
1837696,194.4516,219.396,44.19412,47.6479
1837712,193.4104,219.4817,44.04038,47.65904
1837729,192.4494,219.7106,43.89778,47.68877
1837747,191.5748,220.1252,43.7674,47.74253
1837765,190.8524,220.6514,43.65929,47.81062
1837781,190.4219,221.173,43.59467,47.87792
1837798,190.011,221.9448,43.53285,47.9772
1837815,189.312,222.2494,43.42743,48.01627
1837831,188.489,222.4376,43.30281,48.04038
1837847,187.5788,222.6248,43.1644,48.06434
1837865,186.8929,223.0609,43.05968,48.12009
1837881,186.46,223.5983,42.99341,48.1886
1837897,186.4543,224.3719,42.99253,48.28692
1837912,186.3788,224.5493,42.98095,48.30941
1837929,186.5426,224.9574,43.00607,48.36107
1837946,186.6447,225.7242,43.0217,48.45786
1837964,186.9506,226.3984,43.0685,48.54267
1837980,187.5568,227.0699,43.16105,48.62685
1837997,188.1454,227.7907,43.25064,48.7169
1838013,189.1291,228.1908,43.39977,48.76675
1838031,189.9723,228.5356,43.52703,48.80962
1838048,190.7539,228.9207,43.64451,48.85743
1838065,191.6326,229.2617,43.77604,48.89968
1838081,192.4601,229.4557,43.89938,48.92369
1838098,193.2434,229.7446,44.01566,48.95938
1838113,194.076,229.688,44.13876,48.9524
1838130,194.7091,229.686,44.23202,48.95215
1838147,195.2696,229.9523,44.31435,48.98503
1838164,195.8695,229.9575,44.4022,48.98567
1838185,196.3818,230.1413,44.47702,49.00833
1838199,196.9063,230.1401,44.55341,49.00819
1838217,197.7839,230.2645,44.6808,49.02352
1838231,199.2884,230.4509,44.8979,49.04646
1838248,200.9707,230.6897,45.13871,49.07584
1838265,202.5623,230.8956,45.36469,49.10115
1838281,204.2343,231.1843,45.60015,49.13657
1838300,205.3872,231.1178,45.76136,49.12841
1838315,206.4425,231.2685,45.90812,49.14689
1838331,207.506,231.5211,46.05523,49.17783
1838348,208.6163,231.8016,46.208,49.21215
1838365,209.8227,232.188,46.37301,49.25934
1838382,211.1333,232.6225,46.55116,49.3123
1838398,212.5486,232.9218,46.74224,49.34872
1838415,214.3873,233.0775,46.98848,49.36764
1838432,216.097,233.6077,47.21543,49.43197
1838448,218.3409,234.5918,47.51035,49.55092
1838468,220.491,235.8498,47.78988,49.70214
1838482,222.8711,236.4896,48.09584,49.7787
1838498,225.7289,236.3008,48.45847,49.75612
1838515,228.6985,235.9919,48.82986,49.71916
1838532,231.6089,236.1895,49.18858,49.74282
1838548,234.9155,236.5746,49.58993,49.78885
1838566,238.0677,236.9508,49.96648,49.83372
1838586,240.5978,236.8352,50.26451,49.81994
1838605,242.3089,236.4862,50.46399,49.77829
1838619,244.1886,236.0247,50.68118,49.7231
1838635,246.3365,236.0516,50.92694,49.72632
1838654,248.3661,235.9862,51.1568,49.71848
1838670,250.1953,236.3003,51.36201,49.75607
1838687,252.0356,236.4105,51.56664,49.76924
1838703,253.8846,236.5494,51.77039,49.78584
1838719,255.9649,236.2428,51.99746,49.74919
1838735,258.0026,236.2707,52.21766,49.75253
1838753,259.8772,236.4177,52.41833,49.7701
1838770,261.4957,236.609,52.59012,49.79295
1838786,263.1902,236.6952,52.76855,49.80324
1838803,264.5798,236.7534,52.9138,49.81019
1838819,266.0107,236.5526,53.06235,49.78622
1838837,267.4334,236.5527,53.20903,49.78623
1838852,268.8091,236.6183,53.34993,49.79406
1838872,269.9817,236.7899,53.46928,49.81453
1838888,271.1589,236.9281,53.58845,49.83102
1838903,272.2964,237.0353,53.70295,49.84379
1838919,273.3539,236.9005,53.80885,49.82773
1838934,274.5382,236.5738,53.92681,49.78875
1838951,275.7105,236.829,54.04292,49.81921
1838970,276.8424,236.471,54.15442,49.77647
1838986,278.0326,236.8852,54.27102,49.82591
1839002,279.0678,237.379,54.3719,49.8847
1839019,279.983,237.6257,54.46067,49.91403
1839035,281.0696,237.5375,54.56558,49.90355
1839054,282.152,237.3091,54.66955,49.87639
1839071,282.9909,237.5249,54.74976,49.90206
1839085,284.0688,238.0975,54.85236,49.97002
1839103,285.2619,238.6517,54.96531,50.03559
1839123,286.0897,239.1151,55.04331,50.09031
1839136,287.0826,239.2822,55.13647,50.11001
1839153,287.9951,239.2827,55.22172,50.11006
1839168,288.8203,239.1983,55.29848,50.10012
1839186,289.6896,239.3252,55.37903,50.11507
1839203,290.6901,239.1357,55.47133,50.09274
1839219,291.6415,238.8132,55.5587,50.05468
1839237,292.6178,238.7498,55.64796,50.0472
1839250,293.5669,238.6105,55.73434,50.03073
1839266,294.4113,238.6999,55.81088,50.04129
1839283,295.3199,238.5465,55.8929,50.02317
1839301,296.058,238.2723,55.95927,49.99072
1839317,296.8099,238.1261,56.02665,49.9734
1839334,297.6477,238.1054,56.10145,49.97095
1839351,298.4189,238.2848,56.17006,49.9922
1839367,299.2159,238.5504,56.2407,50.02362
1839383,300.0609,238.692,56.3153,50.04036
1839400,300.8892,238.8232,56.38815,50.05586
1839417,301.6706,238.8735,56.45662,50.0618
1839433,302.4514,238.9526,56.5248,50.07114
1839450,303.1703,238.9737,56.58735,50.07362
1839467,303.8723,238.8492,56.64824,50.05893
1839483,304.6606,238.8898,56.71637,50.06372
1839502,305.4183,238.9484,56.78164,50.07064
1839521,306.1323,239.0037,56.84292,50.07717
1839534,306.8759,239.0367,56.90654,50.08106
1839550,307.7035,238.9816,56.97709,50.07456
1839567,308.6329,238.5256,57.05599,50.02069
1839584,309.4359,238.4633,57.1239,50.01332
1839601,310.3667,238.3513,57.2023,50.00007
1839622,311.3816,238.2198,57.28742,49.9845
1839637,312.4317,238.2057,57.37507,49.98283
1839652,313.8211,238.0778,57.49041,49.96767
1839670,315.2839,238.1825,57.61105,49.98008
1839686,317.219,238.1647,57.76942,49.97797
1839704,319.0603,238.3954,57.91884,50.00529
1839721,320.843,238.519,58.06232,50.01991
1839737,322.7738,238.5705,58.21644,50.026
1839753,324.6091,238.536,58.36171,50.02192
1839771,326.2972,238.7288,58.49428,50.04471
1839787,328.0254,238.755,58.62896,50.0478
1839805,329.4503,238.7893,58.73924,50.05185
1839822,330.891,239.0058,58.85003,50.07742
1839837,332.2457,239.2448,58.95356,50.1056
1839852,333.8221,239.7706,59.07327,50.16748
1839869,335.3031,240.2134,59.18497,50.21947
1839886,336.6032,240.5363,59.28243,50.25732
1839904,337.9071,240.7961,59.37962,50.28772
1839919,339.1178,241.1881,59.46936,50.33352
1839937,340.3961,241.5998,59.5636,50.38152
1839954,341.6673,242.17,59.6568,50.44785
1839969,343.0304,242.608,59.75616,50.49868
1839986,344.3297,243.0469,59.85032,50.5495
1840003,345.8037,243.5804,59.95651,50.61112
1840023,346.9249,244.3402,60.03682,50.69862
1840039,348.0563,245.1115,60.11748,50.78709
1840055,349.1153,245.6125,60.19261,50.84439
1840072,350.0103,245.7323,60.25584,50.85807
1840088,350.862,245.9056,60.3158,50.87784
1840105,351.6913,245.9094,60.37395,50.87828
1840124,352.4237,246.0614,60.42515,50.8956
1840138,353.1265,245.6756,60.47411,50.8516
1840155,353.9533,245.4196,60.53154,50.82235
1840173,354.8573,245.1884,60.5941,50.7959
1840190,355.5778,245.3281,60.64378,50.81189
1840206,356.2854,245.6396,60.69242,50.84749
1840222,357.0127,246.1152,60.74227,50.90174
1840239,357.7588,246.287,60.79324,50.9213
1840256,358.6709,246.3135,60.85534,50.92432
1840273,359.7438,246.1649,60.92807,50.9074
1840289,360.7962,246.1624,60.9991,50.90712
1840306,362.001,246.1501,61.08002,50.90572
1840324,363.064,246.0095,61.15108,50.88969
1840340,364.3069,246.1265,61.23376,50.90302
1840357,365.392,246.2965,61.30558,50.92239
1840371,366.7747,246.3339,61.39664,50.92664
1840390,368.3912,245.7924,61.50241,50.86493
1840406,370.0538,244.8713,61.61047,50.75957
1840423,371.8853,243.6286,61.72863,50.61669
1840440,373.8964,242.5765,61.85734,50.49502
1840454,376.3678,241.4685,62.01404,50.36623
1840474,378.7279,240.6625,62.1622,50.27209
1840488,381.4587,239.9602,62.33184,50.18975
1840506,383.9504,239.2824,62.48497,50.11003
1840523,386.3225,238.5301,62.6293,50.02122
1840540,388.4738,237.6621,62.759,49.91836
1840556,390.755,236.5454,62.89529,49.78536
1840572,392.6956,235.4722,63.01024,49.65685
1840587,394.4446,234.4053,63.11308,49.52842
1840605,396.0716,233.6699,63.20809,49.43951
1840622,397.6211,232.8743,63.298,49.34295
1840640,398.8385,232.3172,63.36824,49.27511
1840656,399.7318,231.8102,63.41957,49.2132
1840671,400.8946,231.048,63.48611,49.11985
1840689,401.9744,230.2894,63.54763,49.02658
1840705,402.8849,229.7292,63.59929,48.95749
1840721,403.694,229.0931,63.64505,48.8788
1840738,404.3645,228.6428,63.68285,48.82294
1840754,404.9616,227.6759,63.71643,48.70258
1840771,405.6357,226.6983,63.75425,48.5803
1840788,406.3678,225.32,63.7952,48.40689
1840805,407.2147,223.2717,63.84243,48.14699
1840821,407.9365,221.7132,63.88256,47.94744
1840837,408.6985,219.9382,63.9248,47.71829
1840855,409.5357,218.1111,63.97106,47.4803
1840871,410.4175,216.2318,64.01962,47.23323
1840888,411.1245,214.6369,64.05843,47.02172
1840904,411.6984,213.087,64.08987,46.81458
1840921,412.0987,211.6425,64.11174,46.62007
1840938,412.4919,210.0547,64.1332,46.40464
1840954,412.8447,208.6502,64.15243,46.21265
1840970,413.0164,207.158,64.16177,46.00718
1840988,413.0634,205.7827,64.16433,45.81644
1841004,412.8204,204.5739,64.15111,45.64773
1841022,412.1859,203.4609,64.1165,45.49147
1841039,411.6469,202.5445,64.08705,45.36216
1841055,410.9568,201.9367,64.04924,45.27608
1841071,410.1795,201.4534,64.00654,45.20744
1841088,409.478,201.0726,63.96788,45.15323
1841106,408.6122,200.9157,63.92002,45.13086
1841124,407.8064,200.754,63.87534,45.1078
1841141,407.0462,200.7666,63.83305,45.10959
1841156,406.1818,200.571,63.78481,45.08167
1841173,405.2919,200.2953,63.73497,45.04226
1841189,404.5688,200.1283,63.69435,45.01838
1841205,403.8317,199.9571,63.65282,44.99385
1841225,403.2178,199.7692,63.61813,44.96693
1841240,402.9365,199.5652,63.60221,44.93765
1841255,402.5376,199.4479,63.57961,44.92081
1841271,402.2325,199.2401,63.56229,44.89095
1841289,401.7926,198.8334,63.53729,44.8324
1841307,401.2573,198.2879,63.50681,44.7537
1841322,400.6389,197.6993,63.4715,44.66855
1841342,399.82,197.1593,63.42463,44.5902
1841354,399.0785,196.6375,63.38205,44.51429
1841370,398.1449,196.0139,63.32826,44.4233
1841390,397.0061,195.8395,63.26238,44.39781
1841404,395.7253,195.3462,63.18791,44.32557
1841425,394.6887,195.1238,63.12737,44.29296
1841438,393.805,194.8817,63.07555,44.2574
1841458,392.8228,194.5209,63.01775,44.20433
1841472,391.9387,194.0815,62.96551,44.13957
1841494,391.0232,193.7112,62.91122,44.08488
1841511,390.0268,193.64,62.85192,44.07436
1841524,388.9744,193.2815,62.78901,44.0213
1841540,387.7578,192.8292,62.71596,43.95422
1841556,386.0603,192.3889,62.61341,43.88879
1841573,384.3391,191.8928,62.50871,43.81487
1841589,381.843,191.2415,62.35555,43.71756
1841605,379.0303,190.2212,62.18108,43.56448
1841624,375.7049,189.0446,61.97217,43.38699
1841638,371.2333,187.5807,61.68666,43.1647
1841654,366.6418,186.6663,61.38791,43.02501
1841671,361.1753,186.1652,61.0246,42.94819
1841688,355.4389,185.3945,60.63421,42.82967
1841707,349.9085,184.7802,60.24866,42.73488
1841726,344.7106,183.7749,59.87783,42.57911
1841743,341.0901,183.094,59.61455,42.47316
1841758,337.9436,182.6127,59.38233,42.39807
1841774,335.2938,182.3154,59.18427,42.35158
1841792,332.881,181.9644,59.00191,42.29662
1841809,330.329,181.7291,58.8069,42.25972
1841827,328.301,181.4591,58.65035,42.21732
1841841,326.1476,181.1755,58.48257,42.17272
1841858,324.1125,180.6965,58.32252,42.09726
1841874,322.0667,180.4178,58.16016,42.05327
1841891,320.1817,180.059,58.00923,41.99656
1841908,318.483,179.4249,57.87213,41.89606
1841924,316.7106,178.8177,57.72794,41.79954
1841942,314.7692,178.148,57.56869,41.69273
1841960,312.7451,177.6079,57.40115,41.60634
1841978,310.5241,176.8431,57.21553,41.48361
1841993,308.5546,175.9162,57.04936,41.33425
1842008,306.2335,174.6639,56.85159,41.13135
1842025,302.728,173.0472,56.5489,40.86754
1842044,299.6113,171.6838,56.27564,40.64341
1842058,295.821,169.6504,55.93798,40.30635
1842074,291.8901,167.0785,55.58147,39.87513
1842091,288.1089,164.7369,55.23231,39.47776
1842107,284.2798,163.3713,54.87238,39.2439
1842124,280.4883,162.7113,54.50953,39.13031
1842143,276.7938,162.4477,54.14965,39.08483
1842159,273.1137,162.7091,53.78484,39.12992
1842175,269.6654,162.7761,53.43715,39.14147
1842194,266.468,163.5191,53.1096,39.26927
1842210,263.092,164.6309,52.75825,39.45966
1842226,259.159,165.7451,52.34166,39.6494
1842242,255.5348,166.9768,51.9507,39.85796
1842258,251.9025,168.8097,51.55191,40.16599
1842274,247.8254,171.0242,51.09578,40.53444
1842292,243.881,173.1579,50.64577,40.88567
1842308,240.5322,174.6658,50.25684,41.13165
1842325,237.539,176.2463,49.90372,41.38752
1842342,234.8595,177.7411,49.58318,41.62767
1842360,232.4846,178.4976,49.29551,41.74854
1842375,230.149,178.7306,49.00929,41.78566
1842390,227.9437,178.4859,48.73598,41.74666
1842407,226.113,178.942,48.50681,41.81931
1842423,224.5093,180.3602,48.30434,42.04418
1842441,223.1948,181.8894,48.13717,42.28486
1842457,221.853,183.7995,47.9654,42.58292
1842473,220.6797,185.2918,47.81427,42.81384
1842490,219.9627,186.72,47.72148,43.03324
1842507,219.9955,189.7429,47.72573,43.49245
1842525,220.2611,193.4317,47.76014,44.04354
1842541,220.7909,197.8013,47.82863,44.68332
1842557,221.5524,202.9756,47.92677,45.42307
1842573,222.7592,208.8417,48.08154,46.2389
1842591,223.9076,214.097,48.22795,46.94976
1842607,225.5267,220.971,48.43298,47.85188
1842625,227.0276,227.9642,48.62156,48.73853
1842641,228.3832,234.0271,48.79069,49.48274
1842656,229.3749,239.5537,48.91368,50.14198
1842672,230.0273,244.8803,48.99428,50.76061
1842690,230.5457,249.9153,49.05813,51.33072
1842706,230.9677,254.7851,49.11,51.86897
1842723,230.752,259.1254,49.0835,52.33807
1842741,228.957,261.8776,48.86192,52.63046
1842756,226.977,264.6289,48.61522,52.91891
1842773,224.7672,267.9703,48.337,53.26413
1842788,222.5738,271.8395,48.05782,53.65704
1842806,220.9037,274.7072,47.84319,53.94359
1842824,219.6046,276.9088,47.675,54.16095
1842839,218.3534,277.9969,47.51198,54.26753
1842855,217.3546,279.6209,47.38113,54.4256
1842872,216.6364,281.6353,47.28662,54.61998
1842888,216.5407,284.376,47.274,54.8815
1842905,216.6926,287.4189,47.29403,55.16793
1842922,217.0724,290.6049,47.34403,55.46349
1842944,217.0709,293.2831,47.34384,55.70856
1842960,217.3385,295.9264,47.37901,55.94745
1842977,217.7613,298.5303,47.43449,56.17994
1842993,218.3749,301.529,47.5148,56.44423
1843008,219.0563,303.4706,47.60369,56.61342
1843023,219.471,304.667,47.65765,56.71692
1843040,219.6777,305.9049,47.6845,56.82342
1843055,220.0241,307.4217,47.72944,56.95309
1843073,220.5266,309.2694,47.79448,57.10984
1843089,221.4903,310.8362,47.91879,57.24173
1843106,222.6373,311.7278,48.06595,57.31636
1843123,224.3433,312.379,48.28329,57.37068
1843143,225.8436,312.7445,48.47291,57.4011
1843158,227.1316,313.0001,48.63457,57.42234
1843172,228.7315,314.0446,48.83395,57.50889
1843193,230.3853,314.703,49.03839,57.56323
1843206,232.2243,315.3303,49.26377,57.61486
1843223,234.5627,315.7754,49.54741,57.6514
1843246,236.4604,315.7766,49.7752,57.6515
1843261,238.3953,315.4467,50.00528,57.62442
1843275,240.1383,315.3186,50.21066,57.6139
1843294,242.0514,315.2483,50.43407,57.60812
1843306,244.1676,315.2112,50.67876,57.60507
1843326,246.0107,314.6899,50.88983,57.56216
1843342,247.6838,314.6284,51.07978,57.55708
1843361,249.1692,314.6132,51.24712,57.55583
1843375,250.6024,314.7214,51.40744,57.56475
1843394,252.0951,315.1188,51.57322,57.59747
1843406,253.6844,315.1562,51.74842,57.60054
1843424,255.0807,315.2285,51.90122,57.60649
1843440,256.5692,315.0983,52.06298,57.59578
1843462,257.8464,315.0932,52.20085,57.59536
1843479,259.0314,315.2594,52.32801,57.60903
1843495,260.2781,315.7034,52.46101,57.6455
1843509,261.6766,316.061,52.60924,57.67482
1843527,263.1353,316.2864,52.7628,57.69326
1843547,264.2817,316.4336,52.88272,57.70531
1843557,265.517,316.5298,53.0112,57.71317
1843574,267.174,316.3372,53.18236,57.69742
1843590,269.2025,315.9347,53.39005,57.66447
1843610,271.5327,315.5704,53.62614,57.63458
1843633,273.4203,314.5538,53.81548,57.55093
1843644,275.3193,313.3687,54.00425,57.45293
1843659,277.8446,312.3137,54.25264,57.36524
1843679,279.7619,311.3884,54.43926,57.28799
1843693,281.8261,310.7395,54.6383,57.23362
1843711,284.1164,309.9031,54.85687,57.1633
1843727,286.6302,309.062,55.09408,57.09231
