Time Stamp(ms),Intersection,,Angle,
,x,y,x,y
449673.3,319.7701,238.3401,57.97611,49.99874
449688.2,319.8894,238.3716,57.98571,50.00246
449707.4,319.7902,238.3858,57.97772,50.00415
449723.6,319.7357,238.3271,57.97334,49.9972
449740.9,319.7156,238.3751,57.97171,50.00288
449757.7,319.7407,238.4513,57.97374,50.0119
449771.7,319.7671,238.5264,57.97587,50.02079
449789.5,319.5852,238.3717,57.96121,50.00248
449806.8,319.3232,238.4086,57.94007,50.00686
449825.4,319.0673,238.5085,57.91941,50.01866
449841.5,318.8167,238.6996,57.89914,50.04126
449856.6,318.4612,238.7735,57.87036,50.04999
449874.4,318.1405,238.7491,57.84435,50.04712
449891.2,317.8695,238.6379,57.82235,50.03397
449907.2,317.694,238.3571,57.80808,50.00076
449925,317.5017,238.1386,57.79244,49.97488
449940,317.173,237.8914,57.76567,49.94558
449958,316.748,237.8986,57.731,49.94642
449975,315.9944,238.0344,57.66935,49.96254
449991.7,315.1107,238.0481,57.5968,49.96416
450009.2,314.0145,238.0548,57.5064,49.96495
450027.2,312.9561,238.0932,57.41869,49.9695
450041.6,311.8372,238.024,57.3255,49.96129
450058.3,310.5551,237.9816,57.21814,49.95627
450073.3,308.8311,238.0627,57.07278,49.96588
450091.6,307.1436,238.2222,56.92939,49.98479
450108,305.0345,238.297,56.7486,49.99364
450124.4,303.004,238.4597,56.5729,50.0129
450142.5,301.2752,238.5481,56.42201,50.02335
450159.1,299.132,238.6911,56.23326,50.04025
450173.8,296.7849,238.9088,56.02441,50.06597
450191.2,294.4155,239.1736,55.81126,50.09721
450207.2,291.3177,239.6254,55.52901,50.1504
450223.4,288.1388,240.1153,55.2351,50.20796
450241.3,284.2902,240.6245,54.87337,50.26764
450259.8,280.6121,240.8695,54.52147,50.2963
450276.8,276.3669,240.827,54.10765,50.29132
450291.5,271.8707,240.3436,53.66017,50.23473
450307.5,267.7241,239.9676,53.23888,50.19062
450324.1,263.7537,239.6074,52.82756,50.14828
450340.2,260.2264,239.4719,52.45551,50.13235
450360.3,256.9129,239.5865,52.10017,50.14583
450376.5,253.3354,239.7117,51.71007,50.16055
450391.2,249.1062,239.4945,51.24005,50.135
450408.3,245.3759,239.1715,50.81735,50.09695
450424.3,241.9826,238.798,50.42607,50.05289
450438.9,238.6347,238.5582,50.03359,50.02454
450457.8,235.1607,238.3077,49.61943,49.9949
450475.8,232.508,237.9789,49.29836,49.95596
450489.7,229.713,237.5303,48.95548,49.90269
450512.6,227.652,237.1202,48.6996,49.8539
450523.3,225.9802,236.8646,48.49011,49.82345
450539.6,224.1958,236.9122,48.26457,49.82912
450555.9,222.0643,237.0966,47.99253,49.85109
450576.2,219.8654,237.0884,47.70885,49.85012
450592.7,217.5886,237.0882,47.41184,49.8501
450607.7,215.2654,237.0261,47.10528,49.8427
450623.5,213.245,236.9912,46.83577,49.83854
450640.9,211.4023,236.9434,46.58759,49.83284
450657.6,209.6206,236.7986,46.34544,49.81557
450673.8,207.4955,236.5823,46.05378,49.78977
450692.6,205.8389,236.2673,45.82427,49.75213
450707.7,204.2155,236.028,45.5975,49.72349
450725.3,202.6927,235.8847,45.38311,49.70632
450741.9,201.1875,235.5842,45.16959,49.67029
450757.5,199.7142,235.2867,44.95903,49.63458
450774,198.0869,235.1161,44.72466,49.61406
450791.1,196.7969,234.7936,44.53749,49.57524
450808.2,195.6925,234.3797,44.3763,49.52533
450824.8,194.69,233.8882,44.22921,49.46594
450839.1,193.7131,233.5527,44.08516,49.42531
450858.1,192.8697,233.3903,43.96023,49.40561
450875.9,192.18,233.4238,43.85768,49.40968
450891.4,191.5926,233.8481,43.77006,49.46109
450908.7,191.2135,233.1149,43.71338,49.37219
450924,190.7117,232.6304,43.63817,49.31327
450942.4,190.3982,232.3562,43.59111,49.27986
450958.9,190.3749,232.1509,43.5876,49.25481
450974.3,190.2181,231.8709,43.56402,49.22062
450992.7,190.0977,231.6486,43.54591,49.19344
451008.7,189.9216,231.387,43.51939,49.16142
451026.2,189.8558,231.2075,43.50948,49.13941
451039.8,189.9477,230.9255,43.52333,49.10481
451056.8,189.8816,230.5741,43.51336,49.06162
451077.3,189.7557,229.9279,43.49438,48.98202
451102,189.8943,229.6799,43.51528,48.9514
451109.7,190.0339,229.4821,43.53631,48.92695
451125.6,190.518,229.1556,43.6091,48.88654
451143.8,190.7522,228.7056,43.64425,48.83073
451157.3,190.787,228.0932,43.64947,48.75459
451173.9,190.4547,227.5873,43.59959,48.69152
451194.4,190.2126,227.2796,43.5632,48.65309
451207.3,189.9977,227.0211,43.53085,48.62074
451223.7,189.7243,226.7921,43.48966,48.59206
451240.6,189.4914,226.5008,43.45452,48.55553
451258.3,189.2636,225.8319,43.4201,48.47143
451279.3,189.2123,225.5701,43.41235,48.43845
451292.9,189.3407,225.3574,43.43176,48.41161
451309.4,189.2884,225.2703,43.42386,48.40061
451326.2,189.1283,225.1985,43.39965,48.39155
451341.9,188.7845,225.2775,43.34762,48.40153
451358.8,188.6812,225.1599,43.33196,48.38667
451374.7,188.6926,224.946,43.33369,48.35963
451391.4,188.8338,224.8732,43.35507,48.35043
451408,188.7633,224.8512,43.3444,48.34764
451424.3,188.4925,224.7455,43.30334,48.33426
451440.8,188.1553,224.7738,43.25214,48.33784
451457.5,188.0131,224.8041,43.23052,48.34167
451474.3,187.9615,224.7246,43.22268,48.33161
451490.9,187.8634,224.4984,43.20774,48.30296
451507.3,187.8132,224.165,43.20011,48.26066
451524.5,187.9149,223.7929,43.21558,48.21337
451541.8,188.1762,223.3349,43.25532,48.15505
451558.1,188.2896,222.8601,43.27254,48.09444
451574.2,188.1859,222.2931,43.25679,48.02188
451592.1,188.0224,221.7309,43.23194,47.94972
451608.8,187.9929,221.0213,43.22746,47.85836
451639.4,187.9768,221.0044,43.225,47.85619
451651.8,187.9777,221.1563,43.22514,47.87577
451664.8,187.9873,221.3572,43.2266,47.90165
451678.4,187.9829,221.5004,43.22593,47.92009
451695.9,187.9134,221.8346,43.21535,47.96305
451713.9,187.8898,222.1468,43.21177,48.00312
451730.3,187.8479,222.6363,43.20539,48.06581
451746.9,187.9799,223.1214,43.22547,48.1278
451766.4,188.1042,223.5114,43.24437,48.17753
451780,188.3827,223.6963,43.28669,48.20108
451797.6,188.6295,223.8974,43.32412,48.22666
451814.3,188.8852,224.0815,43.36287,48.25005
451829,189.2122,224.5834,43.41235,48.31373
451846,189.5448,225.059,43.46258,48.37392
451863.3,189.8374,225.3682,43.50671,48.41298
451879.7,190.1647,225.5244,43.55599,48.43269
451896.8,190.5013,225.6816,43.60659,48.4525
451911.8,190.9827,225.846,43.67882,48.47321
451928.5,191.5412,225.8911,43.76239,48.47889
451944.8,192.122,226.0986,43.84904,48.50499
451962.5,192.3919,226.4774,43.88924,48.55259
451979.8,192.6711,226.885,43.93074,48.60371
451995.5,193.3657,227.4559,44.03377,48.67512
452014.6,194.2616,227.7571,44.16612,48.71271
452030.9,195.2366,227.9855,44.30951,48.74118
452048.3,196.1955,227.9801,44.44983,48.74051
452062.5,197.0418,228.2208,44.57312,48.77048
452079.7,198.103,228.5203,44.72698,48.80772
452094.8,199.9146,228.9774,44.98777,48.86446
452112.8,201.8748,229.6503,45.2673,48.94775
452128.7,204.3786,230.4647,45.62037,49.04817
452145.7,206.4297,231.0309,45.90634,49.11775
452162.8,208.7037,231.5303,46.21997,49.17897
452179.3,210.907,232.0866,46.52049,49.24696
452195.7,213.2529,232.5739,46.83683,49.30639
452212.1,215.436,232.961,47.12791,49.35349
452228.7,217.2885,233.4568,47.37244,49.41368
452245.6,219.1338,234.1037,47.61378,49.49199
452262.3,221.042,234.8151,47.86103,49.57783
452278.3,222.7423,235.3758,48.07937,49.64528
452294.2,224.278,235.9326,48.275,49.71207
452311.3,225.4229,236.5409,48.41988,49.78482
452328,226.3801,237.2804,48.54037,49.87297
452345.4,227.3114,237.9857,48.65705,49.95676
452361.3,228.1893,238.7068,48.76656,50.04212
452380.6,228.5338,238.916,48.8094,50.06682
452397.5,228.6674,238.9073,48.82599,50.06578
452410.9,228.6173,238.9276,48.81977,50.06818
452428.5,228.3817,239.2868,48.7905,50.11054
452446.6,228.4661,239.7459,48.80099,50.16458
452462.3,228.6559,240.1116,48.82457,50.20753
452478.4,228.9328,240.3701,48.85892,50.23784
452494.7,229.0611,240.9872,48.87484,50.31006
452511.4,229.2778,241.0407,48.90166,50.31631
452528,229.5999,241.2869,48.94152,50.34504
452544.6,230.0759,241.6667,49.00027,50.38932
452561.6,230.4465,242.0711,49.04593,50.43636
452579.6,230.5111,242.438,49.05387,50.47896
452594.6,230.5024,242.8729,49.05281,50.52936
452611.5,230.7985,243.2592,49.08921,50.57404
452628.8,231.1787,243.5856,49.13588,50.61172
452646.2,231.6494,244.3105,49.19353,50.69519
452662.9,232.0337,245.0081,49.24052,50.77525
452679.2,232.3301,245.7286,49.27668,50.85765
452695.8,232.6877,246.4293,49.32024,50.9375
452712.5,233.1911,247.2521,49.38144,51.03091
452728.9,233.8072,248.1146,49.45613,51.12843
452745.8,234.6305,249.073,49.55559,51.23632
452762.3,235.3572,249.9747,49.64304,51.33736
452778.9,236.0585,250.635,49.72714,51.41108
452796.2,236.6144,251.2502,49.7936,51.47954
452812.4,237.1512,251.9267,49.85759,51.55458
452829.4,237.7568,252.8815,49.9296,51.66009
452846.5,238.48,253.8049,50.0153,51.76165
452862.3,239.4678,254.9951,50.13186,51.89189
452879.8,240.2827,255.8396,50.2276,51.98384
452896.3,241.1564,256.4763,50.32982,52.05293
452914.7,242.2018,257.0611,50.45154,52.11618
452929.2,243.267,257.7589,50.57494,52.19144
452946.4,244.4343,258.6195,50.70943,52.2839
452963.6,245.7335,259.5869,50.85821,52.38737
452980.6,246.9232,260.1583,50.99361,52.44826
452996.7,248.3036,260.5001,51.14975,52.4846
453013.7,250.088,260.7465,51.35003,52.51076
453029.8,251.8518,261.3377,51.54628,52.57341
453046.3,253.8801,262.1429,51.7699,52.65845
453064.1,255.5407,262.9774,51.95134,52.74622
453080.3,257.0848,263.8721,52.11875,52.83995
453098,258.5443,264.4235,52.27584,52.89751
453114,260.2036,264.8288,52.45308,52.93972
453133.5,261.899,265.1368,52.63273,52.97175
453148.1,263.8524,265.7408,52.83789,53.0344
453166.1,265.7827,266.2687,53.03875,53.08902
453181.9,267.8109,267.1777,53.24778,53.18275
453197.8,269.6109,268.0493,53.43161,53.27223
453213.6,271.5562,268.6572,53.62851,53.33441
453230.3,273.3127,269.0493,53.80474,53.37443
453249.3,274.9809,269.2881,53.97074,53.39876
453263.8,276.8579,269.7722,54.15594,53.44802
453281.6,278.4326,270.1302,54.31005,53.48436
453298.4,280.2147,270.4531,54.48309,53.51708
453315,281.9319,270.8629,54.64844,53.55854
453330.7,283.3479,271.1624,54.7838,53.5888
453347.9,284.7374,271.4644,54.91573,53.61926
453364.1,286.0634,271.7523,55.04084,53.64825
453381.8,287.3116,272.1315,55.1579,53.68639
453398,288.747,272.3913,55.29167,53.71247
453413.9,290.3011,272.6311,55.4355,53.73653
453431.5,291.8308,272.8372,55.57604,53.75717
453448.7,293.4556,272.808,55.72423,53.75425
453466.4,295.0099,272.7647,55.86495,53.74991
453485.5,296.247,272.8279,55.97623,53.75624
453500.3,297.7076,272.9281,56.10678,53.76628
453517.8,299.2463,272.8005,56.24339,53.75349
453533.7,300.9877,272.73,56.3968,53.74644
453550,302.5377,272.7631,56.53232,53.74975
453568.3,303.9763,272.6258,56.65725,53.736
453585.4,305.3501,272.5352,56.77577,53.72692
453601.6,306.7143,272.467,56.89273,53.72007
453617.7,308.0571,272.4452,57.00714,53.71788
453633.5,309.2347,272.4019,57.10691,53.71354
453651.9,310.1232,272.2763,57.18183,53.70094
453667.9,311.0246,272.0844,57.25752,53.68165
453685.1,312.0726,271.8582,57.34514,53.65892
453702.5,313.1191,271.7925,57.43222,53.65231
453717.7,314.229,271.8703,57.52412,53.66013
453731.8,315.572,272.0456,57.63471,53.67776
453749.9,316.6234,272.0665,57.72082,53.67986
453766.9,317.7396,272.1202,57.81179,53.68526
453783.5,318.7461,272.0687,57.89343,53.68008
453799.1,319.9237,272.0704,57.98848,53.68025
453815.2,321.1576,272.0752,58.08753,53.68074
453831.8,322.6016,272.02,58.20275,53.67518
453847,324.0882,272.2139,58.3206,53.69466
453866.5,325.6894,272.3517,58.44666,53.7085
453883.9,327.3978,272.5887,58.58017,53.73228
453897.2,329.0196,272.8265,58.70598,53.7561
453917,330.719,272.8817,58.83684,53.76162
453933.9,332.2128,272.5838,58.95106,53.73179
453947.3,333.7689,272.2602,59.06924,53.69931
453964.2,335.2245,272.0599,59.17906,53.67919
453980.5,336.7191,272.0868,59.29109,53.6819
453997.8,338.0693,272.3231,59.39167,53.70563
454012.8,339.5863,272.5492,59.50396,53.72831
454030.5,341.0163,272.8822,59.60913,53.76168
454050.9,342.2557,273.0665,59.69976,53.78012
454068.7,343.4254,273.1349,59.78484,53.78696
454083.1,344.6838,273.348,59.8759,53.80825
454100.7,345.7159,273.6301,59.9502,53.83642
454117.9,346.7001,273.9457,60.02075,53.86787
454132.3,347.851,274.0194,60.10287,53.87522
454150.5,349.2424,273.6885,60.20161,53.84224
454170.3,350.5157,273.4688,60.29145,53.82032
454184.3,351.6729,273.2809,60.37267,53.80156
454200.1,353.0067,272.9789,60.46578,53.77136
454217.3,354.4267,272.7356,60.56433,53.747
454233.1,356.1819,272.2184,60.68532,53.69512
454252.9,357.6181,271.8707,60.78365,53.66018
454267.7,359.2177,271.4835,60.89245,53.62119
454285.3,360.7898,271.168,60.99867,53.58937
454304.2,362.2495,270.9314,61.09666,53.56547
454318.6,363.8585,270.6587,61.20398,53.53789
454332.7,365.6074,270.3031,61.3198,53.50188
454350.2,367.1011,269.9635,61.41805,53.46744
454367,368.6631,269.483,61.52014,53.4186
454382.4,370.6983,268.7456,61.65215,53.34344
454411.3,373.6288,267.8585,61.84027,53.25266
454421.2,375.7079,267.3782,61.97235,53.20336
454439,377.7829,267.058,62.10305,53.17043
454449.4,379.9046,266.6772,62.23553,53.13119
454466.1,382.0212,266.0054,62.36654,53.0618
454484.3,383.9688,265.2383,62.48609,52.98228
454500.7,385.8358,264.4963,62.5998,52.9051
454517,387.6037,263.8805,62.70668,52.84082
454535,389.3389,263.5291,62.81083,52.80407
454550.6,390.8211,263.0695,62.89922,52.75589
454569.9,391.9353,262.6438,62.96531,52.71118
454584,392.9,262.2232,63.02229,52.6669
454603.4,393.7583,261.8789,63.07281,52.6306
454619.3,394.7033,261.3633,63.12822,52.57611
454635.2,395.4565,261.0633,63.17224,52.54436
454650.9,396.2287,260.7293,63.21723,52.50894
454669.2,396.9079,260.4397,63.25668,52.47818
454685.2,397.4159,260.2912,63.28612,52.4624
454701.2,397.9695,260.1671,63.31813,52.4492
454719.4,398.3146,260.1487,63.33805,52.44724
454734.7,398.7469,260.0879,63.36297,52.44076
454754.8,399.152,259.953,63.38628,52.4264
454767.4,399.5996,259.6682,63.41199,52.39605
454783.9,400.1671,259.4168,63.44452,52.36921
454803.6,400.7846,259.0923,63.47983,52.33453
454817.6,401.4032,258.6945,63.51512,52.29194
454834.5,401.9255,258.2575,63.54485,52.24505
454852,402.5093,257.8269,63.57801,52.19875
454868.1,403.3424,257.5135,63.62518,52.165
454887.2,404.2571,257.267,63.6768,52.13842
454903.2,405.3432,257.0262,63.73785,52.11242
454918.6,406.4529,256.6802,63.79996,52.075
454936.3,407.8143,256.0672,63.87577,52.00857
454954.3,408.9151,255.6088,63.93678,51.95875
454969.4,410.3193,255.2762,64.01422,51.92253
454989.4,411.5466,255.0428,64.08156,51.89709
455004.6,412.8234,254.8639,64.15127,51.87757
455020.2,414.1794,254.6411,64.22491,51.85323
455036.9,415.4874,254.4404,64.29559,51.83128
455051.3,417.0029,253.9054,64.37701,51.77267
455067.9,418.5808,253.4221,64.4613,51.7196
455087,420.027,253.2168,64.53809,51.69702
455105.4,421.1729,253.0824,64.59863,51.68222
455121,422.2893,253.2809,64.65735,51.70407
455137.4,423.2422,253.4106,64.70727,51.71833
455153.9,424.1618,253.3291,64.75527,51.70937
455172,425.2773,252.9039,64.81327,51.66256
455186.9,426.4475,252.3154,64.87385,51.59759
455205.2,427.2777,251.9128,64.91666,51.55305
455220.1,428.085,251.4617,64.95816,51.50302
455238.2,428.6887,251.2569,64.98911,51.48029
455252.8,429.2389,251.1929,65.01726,51.47316
455269.7,429.7265,251.2762,65.04215,51.48242
455288,430.1145,251.3097,65.06193,51.48615
455304.2,430.5697,251.056,65.08509,51.45794
455322.6,431.0099,250.7915,65.10745,51.4285
455335.3,431.4892,250.5952,65.13176,51.40664
455352.2,431.7239,250.5186,65.14365,51.39809
455370.7,431.8444,250.4714,65.14974,51.39283
455387,431.6161,250.2389,65.13819,51.36689
455403.6,431.4369,250.2049,65.1291,51.36308
455425.2,431.2285,249.9671,65.11855,51.33651
455441.3,431.1324,249.9397,65.11367,51.33345
455454.9,430.955,250.1562,65.10467,51.35764
455470.5,430.7114,250.3755,65.09229,51.38213
455485.7,430.3309,250.7538,65.07294,51.4243
455504.8,430.0593,251.0795,65.05911,51.46056
455519.3,429.6436,251.2998,65.03793,51.48505
455535.7,429.2205,251.3547,65.01632,51.49115
455552.3,428.7456,251.4837,64.99203,51.50547
455569.1,428.414,251.7235,64.97504,51.53207
455588,428.269,251.7822,64.9676,51.53857
455603.9,428.3362,251.7592,64.97105,51.53603
455618.9,428.3476,251.7266,64.97163,51.53241
455635.4,428.376,251.7035,64.97309,51.52984
455651.3,428.4792,251.5416,64.97838,51.51189
455668.9,428.5585,251.4167,64.98244,51.49802
455685.7,428.806,251.2807,64.99512,51.48292
455702.2,429.0934,251.1103,65.00982,51.46399
455718.4,429.4185,251.0715,65.02644,51.45967
455738,429.7539,251.092,65.04355,51.46195
455753.9,430.0308,251.114,65.05766,51.4644
455770.8,430.3588,250.8284,65.07436,51.43262
455787.5,430.6769,250.819,65.09054,51.43157
455804,430.9414,250.6015,65.10397,51.40734
455821.1,431.1647,250.297,65.11531,51.37337
455839.1,431.3486,249.9741,65.12463,51.33729
455854.3,431.4899,249.5748,65.13179,51.29261
455870.1,431.6139,248.9815,65.13807,51.22605
455887.7,431.7198,248.3372,65.14344,51.15354
455905.3,431.709,247.9256,65.14289,51.1071
455922.2,431.7508,247.6099,65.145,51.07143
455937.5,431.7817,247.36,65.14657,51.04314
455952.1,431.7377,247.2131,65.14434,51.02649
455969.9,431.6387,246.8587,65.13933,50.9863
455987.8,431.4942,246.4981,65.13201,50.94533
456007.2,431.3384,246.2132,65.12411,50.9129
456024.2,431.2295,246.3079,65.11859,50.92368
456036.9,431.0089,246.3519,65.1074,50.92869
456052.8,430.4474,246.3369,65.07887,50.92698
456070.1,429.8315,246.3246,65.04751,50.92558
456088.4,429.151,246.0652,65.01276,50.89603
456103.3,428.5856,245.8451,64.98383,50.87094
456120.6,428.1094,245.7636,64.95941,50.86164
456136.5,427.5229,245.7182,64.92928,50.85646
456151.8,426.8718,245.801,64.89574,50.86591
456170.3,426.307,245.7953,64.86659,50.86526
456186.4,425.718,245.8268,64.83612,50.86885
456202.6,425.1036,245.7665,64.80426,50.86197
456219.3,424.4039,245.6482,64.76788,50.84847
456237.4,423.5677,245.4478,64.72428,50.82557
456254.6,422.5539,245.4275,64.67123,50.82325
456271.3,421.7061,245.5164,64.6267,50.83342
456287.5,420.7689,245.5839,64.57731,50.84112
456304.3,419.5333,245.6633,64.51192,50.8502
456328.1,418.1904,245.5632,64.44049,50.83876
456341.8,417.3051,245.5777,64.3932,50.84041
456355.1,416.2048,245.491,64.3342,50.83051
456369.9,415.0636,245.4053,64.27273,50.82071
456388.8,413.67,245.2356,64.19729,50.8013
456406.2,411.7946,245.2206,64.09512,50.79958
456422.3,409.8736,245.0441,63.98969,50.77938
456439.6,407.9435,244.875,63.88295,50.76
456455.7,405.8825,244.7022,63.76807,50.74019
456473.9,403.7522,244.6314,63.64833,50.73206
456489.8,401.6595,244.6803,63.52972,50.73767
456507.9,399.7263,244.7765,63.41926,50.7487
456522.1,397.8589,245.0324,63.31174,50.77803
456542.3,396.1671,245.2283,63.21364,50.80047
456557.5,394.4354,245.3433,63.11254,50.81362
456572.3,392.5511,245.3558,63.00171,50.81505
456588.5,390.5007,245.3667,62.88016,50.8163
456606.4,388.72,245.2607,62.77377,50.80417
456623.1,387.0616,245.2158,62.67398,50.79903
456640.8,385.6984,245.2365,62.59146,50.8014
456660,384.585,245.1486,62.52372,50.79134
456673.8,383.6502,244.9724,62.4666,50.77117
456689.8,382.5527,244.8653,62.39926,50.75889
456705.9,381.3871,244.9463,62.32742,50.76818
456724.6,380.5273,244.8692,62.27419,50.75934
456739.7,379.6217,244.7622,62.21793,50.74707
456756.6,378.9146,244.6363,62.17385,50.73262
456774.6,378.3505,244.6047,62.13861,50.72899
456795.4,377.7322,244.6125,62.09987,50.72989
456807.9,377.0505,244.6394,62.05705,50.73298
456824.7,376.3799,244.7198,62.0148,50.74221
456841.1,375.9267,244.668,61.98619,50.73627
456857.2,375.5243,244.5748,61.96074,50.72556
456873.7,375.1173,244.4911,61.93495,50.71595
456890.5,374.7891,244.3406,61.91412,50.69866
456908.5,374.694,244.1377,61.90809,50.67533
456925,374.7932,244.0432,61.91439,50.66446
456940.1,374.8637,243.9552,61.91887,50.65432
456957.1,374.7702,243.9241,61.91293,50.65074
456972.8,374.4853,243.7698,61.89482,50.63297
456988.9,374.1638,243.6802,61.87437,50.62263
457005.9,374.0239,243.2965,61.86546,50.57835
457022.6,374.0862,242.8772,61.86943,50.52987
457041.3,374.3329,242.4155,61.88513,50.47635
457057.7,374.6506,242.1693,61.90533,50.44777
457072.9,374.7,241.9853,61.90847,50.42639
457089.7,374.6114,241.9495,61.90284,50.42223
457105.5,374.395,242.0493,61.88908,50.43383
457124.1,374.1149,241.9191,61.87126,50.41869
457141,373.6909,241.545,61.84424,50.37514
457156.5,373.2339,241.1011,61.81506,50.32336
