Time Stamp(ms),Intersection,,Angle,
,x,y,x,y
397006.9,316.7857,234.5703,57.73408,49.54833
397023.7,316.2578,234.1534,57.69092,49.498
397041.2,315.8561,233.6764,57.65802,49.44029
397059.7,315.5361,233.4155,57.63177,49.40868
397074.7,315.2242,233.1776,57.60614,49.3798
397090.1,314.9742,233.0407,57.58557,49.36318
397107.3,314.8307,233.1581,57.57375,49.37743
397124.1,314.7185,233.1894,57.56451,49.38124
397140.1,314.6097,233.2224,57.55555,49.38524
397158.7,314.5045,233.2509,57.54687,49.3887
397174.5,314.5245,233.2558,57.54851,49.38929
397191.1,314.4753,233.6688,57.54445,49.43938
397207.8,314.5516,234.0702,57.55075,49.48795
397224.6,314.7722,234.5439,57.56894,49.54515
397241,314.8991,234.9237,57.57939,49.59091
397258.1,314.6834,235.0868,57.56162,49.61053
397275.5,314.3793,235.2024,57.53653,49.62444
397291.6,314.0467,235.4745,57.50906,49.65714
397308.3,313.779,235.7831,57.48692,49.69415
397325.3,313.3391,236.1679,57.45048,49.74024
397345,312.8222,236.44,57.40756,49.77277
397360,312.1396,236.6284,57.35073,49.79527
397377.5,311.5135,236.5695,57.29845,49.78824
397391.1,310.7817,236.5333,57.23716,49.78391
397408,310.0775,236.6577,57.17799,49.79877
397424.6,309.2632,237.0875,57.10932,49.85001
397443.2,308.5567,237.8056,57.04954,49.93539
397460.3,307.7505,238.5586,56.98108,50.02459
397476.7,306.727,238.6906,56.89381,50.04019
397490.9,305.5986,238.5425,56.79713,50.02269
397508.8,304.1086,238.486,56.66869,50.01601
397526.3,302.7287,238.9041,56.54896,50.06541
397542.3,301.2497,239.8152,56.41977,50.17272
397559.6,299.5292,241.3664,56.26839,50.35432
397575.9,297.4925,242.848,56.08762,50.52649
397593.1,295.4424,244.5783,55.90393,50.72596
397609.4,292.7113,247.8871,55.65649,51.10276
397627.3,289.9598,251.6407,55.404,51.52289
397642.2,286.261,256.6984,55.05942,52.07697
397659.2,283.0204,261.1975,54.75257,52.55857
397675.9,279.435,265.6996,54.40756,53.03014
397691.6,275.2048,269.7265,53.99292,53.44336
397709.2,271.2686,272.3517,53.59952,53.7085
397726.3,266.8537,273.6682,53.14939,53.84022
397742.8,262.2251,275.0193,52.6671,53.97454
397759.5,257.4449,276.1755,52.15761,54.0888
397776,252.0072,277.3671,51.5635,54.20591
397792.7,246.9926,278.5168,51.0015,54.31827
397809.3,242.2645,279.196,50.45882,54.38436
397826.3,237.1904,279.3948,49.86227,54.40366
397842.3,232.2459,279.9145,49.26641,54.45405
397858.9,227.83,280.593,48.7218,54.51963
397876,223.6071,281.3766,48.18972,54.59512
397893.3,220.0159,281.7567,47.72837,54.63164
397908.7,216.0449,281.5574,47.20853,54.6125
397926.5,212.3709,281.477,46.71832,54.60477
397942.3,208.7817,281.193,46.23068,54.57746
397959.9,205.9391,281.2433,45.83821,54.58229
397976.9,203.3359,281.6088,45.47387,54.61743
397994.3,200.6306,282.2185,45.09018,54.67591
398009.8,197.7325,282.2772,44.67336,54.68153
398026.4,195.0628,282.1341,44.284,54.66783
398043.6,193.0618,281.6927,43.98873,54.6255
398060,191.205,281.3782,43.7121,54.59528
398077,189.3725,281.1367,43.43656,54.57204
398093.7,187.8779,280.7408,43.20995,54.53389
398109.8,186.8226,280.329,43.04893,54.49414
398127.1,186.4081,279.7539,42.98546,54.43849
398144.5,185.6725,279.2105,42.87248,54.38577
398159.9,185.0299,278.947,42.77345,54.36015
398175,184.6246,278.3687,42.71082,54.30383
398192.3,184.493,277.7733,42.69045,54.24567
398208.9,184.6715,276.8546,42.71806,54.15562
398225.8,185.2697,275.3138,42.81044,54.00371
398243.7,185.6448,274.0342,42.86822,53.87669
398259.5,186.0776,272.7135,42.93474,53.74478
398275.7,186.2082,271.8046,42.95479,53.65352
398293.7,186.3559,271.2449,42.97745,53.59713
398308.9,186.6332,270.902,43.01994,53.5625
398326.5,186.971,270.3927,43.07162,53.51097
398342.4,187.4065,269.174,43.13813,53.38714
398360.4,187.8915,268.0108,43.21203,53.26828
398377.2,188.4648,266.6329,43.29915,53.12662
398392.5,189.0879,265.0031,43.39354,52.95784
398410.2,189.4587,263.4641,43.44958,52.79725
398426.6,189.7272,261.493,43.49009,52.58984
398443,189.7418,259.3175,43.49229,52.3586
398460.8,189.8006,257.4384,43.50116,52.1569
398476.6,189.7355,255.111,43.49135,51.90453
398495.4,189.5601,253.2068,43.46488,51.69591
398510.3,188.9047,251.3026,43.36581,51.48536
398528.4,188.2931,249.7647,43.27308,51.31387
398544.6,187.5876,248.369,43.16575,51.15712
398561.5,187.1382,247.2949,43.09718,51.03577
398578.2,186.3919,245.8066,42.98298,50.86655
398594.1,185.6055,244.0215,42.86216,50.66196
398611.3,184.8369,242.1025,42.74364,50.44001
398628.5,184.5211,240.4418,42.69481,50.24625
398644.4,184.2594,238.8811,42.65429,50.0627
398660.7,184.0847,237.6232,42.62719,49.91373
398677.8,183.792,236.5091,42.58177,49.78102
398694.2,183.7278,235.074,42.57179,49.609
398710.3,183.8044,233.6456,42.5837,49.43657
398728.1,184.1989,231.7691,42.64491,49.20818
398744.2,185.2116,229.7575,42.80147,48.96098
398762.1,186.1428,228.1885,42.94476,48.76646
398778.6,187.1103,226.4842,43.09292,48.55344
398795.7,188.1734,224.656,43.25489,48.32293
398812.9,189.1383,222.7125,43.40117,48.07557
398828.5,190.3356,220.6369,43.5817,47.80875
398845.4,191.6789,218.5564,43.78295,47.53851
398861.9,193.3953,216.1957,44.03815,47.22847
398879.5,196.0139,213.5635,44.42331,46.87844
398896.9,198.4769,211.1114,44.78101,46.54819
398913.5,201.3734,208.4302,45.19605,46.18245
398929.1,204.7428,205.4453,45.67136,45.76946
398946.2,208.8568,202.4253,46.24097,45.3453
398962.7,214.0129,199.7956,46.93852,44.9707
398979.9,217.827,198.1163,47.4431,44.7289
398998.1,222.4479,196.3304,48.0417,44.46952
399015.8,226.7518,194.7435,48.58701,44.23707
399033.3,230.8003,193.5476,49.08944,44.0607
399049.3,234.5737,192.5183,49.54874,43.90803
399065.2,238.0119,191.2083,49.95987,43.71259
399083.8,241.8341,189.6682,50.4088,43.4812
399103.1,244.9758,188.4889,50.77156,43.30279
399117.2,248.7025,187.4241,51.19467,43.14082
399132.9,252.3347,186.7933,51.59972,43.04445
399150.2,255.068,186.0931,51.89984,42.93712
399165.2,257.7297,185.2085,52.18829,42.80099
399186.4,259.9282,184.4455,52.42376,42.6831
399199.3,262.1558,183.7739,52.65981,42.57896
399217.8,264.0392,183.5205,52.85741,42.53957
399233.6,265.579,183.4091,53.01764,42.52225
399248.9,266.892,183.4872,53.15333,42.53439
399264.1,268.3732,183.9034,53.30538,42.59906
399281.4,269.9467,184.4838,53.46573,42.68903
399299.8,271.1596,184.99,53.58852,42.76729
399314.3,271.9812,185.6482,53.67128,42.86874
399333.4,272.4775,186.1161,53.72112,42.94066
399349.5,272.8597,186.3064,53.75943,42.96985
399365.3,273.8291,186.6249,53.85625,43.01867
399382.8,274.9407,186.9947,53.96675,43.07525
399399.8,276.3256,187.6569,54.10359,43.17631
399414.2,277.5241,188.542,54.22129,43.31085
399431.6,278.5161,189.5138,54.3182,43.4579
399448.4,279.687,190.9381,54.43201,43.67213
399465.8,280.7925,191.8955,54.53888,43.81528
399483.5,281.746,192.1566,54.63062,43.8542
399503.3,282.3989,192.2807,54.69318,43.87267
399518.6,282.8569,192.7518,54.73697,43.94273
399530,283.4775,193.6597,54.79614,44.07727
399548.3,284.2808,194.4098,54.87247,44.18796
399564,285.3872,194.9204,54.97715,44.26308
399580.8,286.2913,195.1987,55.06227,44.30394
399602.9,286.6907,195.5953,55.09975,44.36207
399618,286.8185,196.5184,55.11174,44.49694
399633,287.1056,197.5594,55.13863,44.64826
399650.5,287.6581,198.5966,55.19028,44.79826
399666.4,288.3464,199.5791,55.25443,44.93966
399682.9,288.9745,200.4232,55.3128,45.06056
399700.8,289.4397,201.458,55.3559,45.20809
399715.9,289.6975,203.2482,55.37976,45.46151
399732.2,290.0031,205.1746,55.408,45.7317
399748.5,290.3896,206.6772,55.44366,45.94065
399766.7,290.8258,207.4284,55.48382,46.04453
399782.2,291.2878,207.9222,55.52627,46.1126
399798.8,291.8548,208.5834,55.57824,46.20348
399816,292.4586,209.5398,55.63344,46.3344
399831.5,293.5653,210.1171,55.7342,46.41314
399848.9,294.7518,210.2678,55.84166,46.43364
399865.7,295.9059,210.2327,55.94561,46.42886
399881.6,297.092,210.442,56.05187,46.45734
399898.3,298.3188,210.6966,56.16116,46.49193
399914.3,299.7777,210.7225,56.29033,46.49545
399930.7,301.8149,209.9208,56.46925,46.38639
399948.3,303.8905,208.8022,56.64982,46.23348
399968.1,306.6412,206.7062,56.88648,45.94466
399984.7,309.2242,204.6783,57.10602,45.66235
399998.3,312.0581,202.559,57.34393,45.36421
400017.8,315.4405,199.996,57.62392,44.99943
400037,318.1445,198.109,57.84467,44.72786
400049.8,320.765,196.5436,58.05607,44.50061
400064.3,323.1198,195.2516,58.24392,44.3117
400081.2,325.2696,194.052,58.4137,44.13522
400098.1,327.2691,192.9999,58.57015,43.97956
400114.7,329.5491,191.8946,58.74686,43.81515
400131.9,331.9026,190.8968,58.9274,43.66594
400148.6,334.2752,190.0627,59.10752,43.54064
400165.7,336.4034,189.3508,59.26749,43.43328
400182.1,338.1899,188.7263,59.40062,43.33879
400199,339.6859,188.2686,59.51131,43.26936
400214.9,341.1449,187.7104,59.61856,43.18445
400231,342.2805,187.2458,59.70157,43.11361
400249,343.3378,186.8252,59.77848,43.04934
400267.3,344.2391,186.5257,59.84378,43.00347
400281.9,345.4748,186.2605,59.93287,42.96282
400301.3,346.5238,186.5108,60.00813,43.0012
400315.6,346.9162,186.9505,60.0362,43.06849
400330.5,346.2446,187.226,59.98814,43.11058
400350.6,345.4488,187.0683,59.931,43.0865
400365.2,344.5587,186.4552,59.86687,42.99267
400382.2,343.941,185.9502,59.82221,42.91518
400402,343.2494,185.8563,59.77207,42.90074
400416.5,342.2524,185.9888,59.69952,42.92111
400432.3,340.8152,186.2601,59.59438,42.96275
400452,338.3793,186.2199,59.41468,42.95658
400468.7,335.9419,185.6475,59.23293,42.86863
400487.6,333.5709,185.086,59.05425,42.78211
400499,330.0847,185.1184,58.78811,42.7871
400520,326.7487,185.6668,58.52957,42.87159
400534.9,320.1203,187.5189,58.00429,43.15527
400561.1,315.5037,189.0606,57.6291,43.38941
400570,311.0832,190.2029,57.26244,43.56173
400582.1,301.5833,192.3602,56.44899,43.88451
400604.7,292.3955,194.2287,55.62767,44.16127
400620.8,284.8298,196.1327,54.92448,44.44066
400632.2,276.5331,198.9617,54.12402,44.85089
400651,269.1545,200.2249,53.38515,45.0322
400668.8,263.6831,200.367,52.82018,45.05252
400684.6,258.7882,200.7924,52.30197,45.11328
400704.9,254.5342,202.5912,51.84154,45.36877
400724.3,250.0976,204.7011,51.3511,45.66553
400744.1,247.6997,206.6371,51.08157,45.9351
400756.4,245.6576,207.7691,50.84954,46.09151
400768.8,243.2506,209.965,50.57305,46.39242
400787.9,241.2995,212.543,50.34652,46.74149
400805.3,239.9386,214.9078,50.18722,47.05778
400819.9,238.3175,217.9935,49.99606,47.46491
400837.7,237.1207,221.1597,49.85397,47.87621
400853.7,236.2556,223.9336,49.75072,48.23127
400870.7,235.1841,225.9553,49.62225,48.48697
400887.6,233.9488,227.9546,49.47327,48.73733
400906.1,233.2311,229.5323,49.3863,48.93316
400921.9,232.7218,231.6015,49.32439,49.18768
400936,232.3656,233.6992,49.28101,49.44305
400951.4,232.1442,235.32,49.254,49.63857
400969.3,231.9115,236.628,49.22559,49.79522
400986.3,232.0566,238.018,49.24331,49.96058
401004.4,232.3919,239.3173,49.28421,50.11414
401018.8,232.9595,240.5651,49.3533,50.26068
401035.8,233.3326,241.4726,49.39862,50.3667
401055.7,233.5222,241.9638,49.42162,50.42389
401068.4,234.091,242.2037,49.49046,50.45177
401085.8,234.9605,242.6958,49.59534,50.50886
401105.9,235.5535,243.1601,49.66661,50.56258
401122.5,236.0735,243.8148,49.72893,50.63815
401138.6,236.5153,244.6941,49.78176,50.73925
401151.9,237.1285,245.6989,49.85489,50.85426
401169.9,238.3236,246.7964,49.99679,50.97923
401186.8,239.7827,247.6024,50.1689,51.07058
401202.6,241.4818,247.9796,50.36777,51.1132
401219.8,242.7687,248.4005,50.5173,51.16067
401235.8,244.9805,249.1285,50.77209,51.24255
401262.2,247.9814,249.731,51.1134,51.31009
401271.8,250.4772,250.4591,51.39348,51.39146
401285.2,254.6577,251.7466,51.85505,51.53463
401302.7,258.0281,252.9121,52.2204,51.66346
401322.5,261.1581,253.9039,52.55439,51.77251
401340.9,263.6039,254.6355,52.8119,51.85262
401353.1,266.0994,255.5182,53.07151,51.9489
401369.6,268.6987,256.6668,53.33865,52.07355
401386.6,271.0585,257.7429,53.57831,52.18971
401403.3,273.2479,258.7592,53.79825,52.29887
401420.8,275.0667,259.7497,53.97923,52.40474
401436.7,276.6761,260.5974,54.13808,52.49494
401457.1,278.2715,261.4235,54.29435,52.58249
401473.7,279.9207,262.2717,54.45464,52.67202
401489.7,281.2433,262.8387,54.58231,52.73166
401504.6,282.6838,263.3616,54.72043,52.78653
401522.4,284.2876,264.1541,54.87312,52.86941
401542.4,285.7261,264.719,55.00909,52.9283
401557.8,287.3709,265.3547,55.16345,52.99437
401572.2,289.1113,266.0436,55.32548,53.06575
401587.9,290.7939,266.7463,55.48088,53.13831
401604,292.4562,267.4762,55.63322,53.21343
401621.6,293.7594,268.1391,55.75182,53.28143
401638.1,295.1235,268.7289,55.8752,53.34174
401654.8,296.4532,269.3568,55.99472,53.40576
401672.1,297.9411,269.8165,56.12758,53.45251
401687.3,299.4667,270.368,56.26287,53.50846
401707,300.9365,271.0266,56.3923,53.57508
401724.5,302.5415,271.8059,56.53265,53.65366
401740.2,304.156,272.6376,56.67279,53.73717
401757,305.5225,273.3617,56.79058,53.80963
401772.5,306.9535,274.1965,56.91317,53.89284
401788.2,308.1852,274.8489,57.01802,53.95765
401805.6,309.4046,275.1213,57.12126,53.98464
401823.6,310.5508,275.1787,57.21778,53.99033
401837.8,311.8898,275.1194,57.32989,53.98446
401855.8,313.6558,275.2509,57.47672,53.99748
401871.7,315.1455,275.4977,57.59967,54.02189
401890.2,316.5351,275.8292,57.71361,54.05464
401907.4,317.8822,276.045,57.82338,54.07594
401924.2,318.9384,276.3905,57.90899,54.10998
401937.5,319.9889,276.7645,57.99372,54.14677
401952.8,321.1421,277.0542,58.08628,54.17522
401970.3,322.2698,276.9932,58.17635,54.16924
401989.4,323.6376,276.9347,58.28497,54.16349
402004.8,324.972,276.8815,58.3903,54.15826
402020.6,326.424,277.198,58.5042,54.18933
402040.6,328.269,277.754,58.64787,54.24379
402060.8,329.1913,278.0253,58.71925,54.27031
402072.5,330.5607,278.5615,58.8247,54.32263
402089.5,332.1071,279.0276,58.943,54.368
402106.2,333.564,279.4403,59.05372,54.40808
402122.4,335.1445,279.627,59.17304,54.42619
402139.8,336.6927,279.61,59.28912,54.42455
402155.4,338.5938,279.5741,59.43058,54.42106
402173.4,340.379,279.6556,59.56234,54.42896
402191.4,342.0671,279.6868,59.686,54.43199
402205.5,344.218,279.5038,59.84225,54.41424
402223.1,346.7266,279.3925,60.02265,54.40344
402241,349.4736,279.3,60.21796,54.39446
402257.6,352.4444,279.3927,60.42659,54.40346
402273.9,355.1933,279.5196,60.61728,54.41578
402291.7,357.744,279.6716,60.79224,54.43051
402309.2,360.419,279.912,60.97368,54.4538
402324.5,363.2271,280.1463,61.16195,54.47648
402341.9,365.3732,280.1454,61.30434,54.47639
402357.5,367.6917,280.1884,61.45673,54.48055
402374.9,369.8111,280.1848,61.59474,54.48021
402389.1,372.5425,280.0731,61.77081,54.4694
402407,375.067,280.0479,61.93177,54.46696
402425.5,377.433,279.9162,62.08109,54.45421
402439.8,379.7303,279.8995,62.22469,54.45259
402459,382.0044,279.8783,62.36551,54.45054
402474.9,383.9864,279.9576,62.48716,54.45822
402490.3,386.3774,279.9249,62.63263,54.45505
402507.7,388.7302,279.7572,62.77438,54.43881
402524.3,390.6992,279.4159,62.89197,54.40571
402540.9,392.7619,279.1736,63.01415,54.38218
402558.8,394.4508,278.8793,63.11344,54.35357
402572.5,396.6353,278.3597,63.24086,54.30296
402590.3,398.7096,278.0905,63.36082,54.27668
402606.8,400.659,277.7405,63.47266,54.24247
402624,402.3309,277.5321,63.56788,54.22207
402642.1,403.9446,277.1863,63.65919,54.18818
402657.1,405.5914,276.7913,63.75177,54.1494
402672.3,407.2871,276.3696,63.84647,54.10792
402689.8,408.6465,275.7657,63.92192,54.04838
402705.5,409.8495,275.2093,63.98837,53.99335
402721.9,411.011,274.6906,64.05222,53.94194
402740.3,412.4107,274.283,64.12878,53.90144
402757.9,413.6192,273.8782,64.19453,53.86116
402774,414.601,273.5312,64.24773,53.82655
402790.6,415.3166,273.1879,64.28638,53.79226
402807,416.0979,272.6089,64.32845,53.7343
402823.1,417.0422,271.8984,64.37912,53.66296
402839,417.8216,271.6309,64.42081,53.63603
402856.1,418.5604,271.3744,64.46021,53.61018
402876.3,419.3641,270.9693,64.50294,53.5693
402889.4,420.5329,270.2741,64.56484,53.49895
402906.8,422.0234,269.5725,64.64338,53.42771
402922.9,423.9095,269.0287,64.74212,53.37233
402940.6,425.3636,268.7464,64.81775,53.34352
402956.6,426.7402,268.5579,64.88896,53.32426
402972.9,428.3306,268.2612,64.97076,53.29393
402990.4,430.4242,267.5417,65.07769,53.22016
403007.5,433.8016,266.2515,65.2484,53.08724
403023.4,437.2762,265.309,65.42175,52.98962
403040.7,440.5402,264.5886,65.58252,52.91471
403057.7,443.7589,263.6309,65.73914,52.81472
403073.9,446.7844,262.554,65.88465,52.70173
403090.5,450.1005,261.4017,66.04226,52.58018
403110.1,453.4117,260.0789,66.19772,52.4398
403124.9,456.0101,258.9645,66.31838,52.32086
403140,458.1495,257.744,66.41687,52.18983
403158.6,459.9305,256.5476,66.49827,52.06065
403173.5,461.8824,254.4897,66.58688,51.83668
403189.8,463.8372,251.9537,66.67498,51.55757
403207.6,465.3604,249.6263,66.7432,51.29837
403222.8,466.6728,247.5947,66.80168,51.06971
403240.2,467.8383,246.1486,66.85339,50.90554
403258.4,468.7062,244.7998,66.89174,50.75138
403273.8,469.5705,242.6508,66.92982,50.50364
403290.8,470.3002,240.9181,66.96188,50.30198
403306,470.7885,239.4889,66.98328,50.13435
403322.8,471.0941,238.516,66.99666,50.01956
403341.2,471.3726,237.5094,67.00883,49.9002
403358.5,471.9296,236.6391,67.03316,49.79655
403374,472.4096,235.9651,67.05408,49.71596
403390.5,472.1917,235.7473,67.04459,49.68985
403407.1,471.6508,235.5263,67.02099,49.66335
403423.8,471.1822,235.5354,67.00051,49.66444
403440.3,470.8214,235.3712,66.98473,49.64473
403461,470.4355,235.2068,66.96781,49.62497
403476.2,469.7237,235.301,66.93656,49.63629
403491.4,468.5298,235.5432,66.88396,49.66537
403510.1,467.7266,235.9305,66.84843,49.71181
403527.5,467.2951,236.0267,66.82932,49.72334
403543.7,466.7988,235.9348,66.80728,49.71233
403559.4,466.2499,235.7506,66.78287,49.69026
403575.3,465.4696,235.7347,66.74809,49.68835
403592.3,464.9374,235.8746,66.7243,49.70512
403609.4,464.6357,236.0156,66.71079,49.72201
403625.7,464.3434,236.0996,66.69769,49.73206
403641.8,463.6976,236.528,66.66871,49.78328
403660,462.4782,237.0289,66.61379,49.84303
403675.8,461.4586,237.079,66.56769,49.849
403696.7,460.8502,236.5604,66.54009,49.78715
403709.6,460.5932,236.436,66.52842,49.77229
403725.9,460.2402,236.4857,66.51237,49.77822
403742.2,459.7,236.9208,66.48776,49.83015
403760.1,459.2956,237.3789,66.46931,49.8847
403774.3,458.9859,237.5427,66.45516,49.90416
403789.9,458.8506,237.2231,66.44897,49.86615
403807.1,458.6044,236.9334,66.43771,49.83165
403824.5,458.3088,236.5352,66.42417,49.78414
403841.7,458.0706,236.4609,66.41325,49.77526
403858.2,458.0833,236.2377,66.41383,49.74859
403874.5,458.1646,236.1089,66.41756,49.73317
403891.7,458.1227,235.9649,66.41564,49.71593
403907.3,457.9081,235.952,66.40579,49.71439
403923.8,457.6376,235.6289,66.39337,49.67566
403941.1,457.3875,235.0434,66.38187,49.60532
403970,457.2059,234.6151,66.37352,49.55374
403980,456.8852,234.1138,66.35876,49.49321
403996.3,456.3565,233.7018,66.33438,49.44337
404012.5,455.6388,233.4723,66.30121,49.41556
404029.3,454.9201,233.3192,66.26791,49.39698
404044.7,454.0338,233.3257,66.22671,49.39777
404065.8,453.1071,233.4711,66.18349,49.41541
404085,452.1963,233.6202,66.14088,49.43349
404095.8,450.8802,233.5021,66.07903,49.41917
404110.8,449.4286,233.5472,66.01048,49.42464
404127.9,447.8784,233.8169,65.93686,49.45731
404144.7,446.1643,234.0741,65.85496,49.48843
404161.7,444.6378,234.5293,65.78158,49.54338
404178.4,443.1726,235.1723,65.71075,49.62082
404194.6,441.3526,235.844,65.62223,49.70145
404217.3,439.5519,236.4664,65.53405,49.77592
404228.2,438.0256,236.9574,65.45883,49.83451
404243.5,436.5038,237.626,65.3834,49.91406
404260.4,435.2398,238.2537,65.32043,49.98851
404276.9,434.0545,238.6771,65.26109,50.0386
404298.2,432.7792,239.0598,65.19695,50.08379
404312.5,431.5621,239.3752,65.13545,50.12096
404330.2,430.7876,239.5803,65.09616,50.1451
404343.1,430.283,239.6667,65.0705,50.15527
404359.1,430.0247,239.7798,65.05735,50.16856
404376.4,429.4154,240.0312,65.02628,50.19809
404398.6,428.7881,240.2017,64.9942,50.2181
404409.3,428.371,240.2944,64.97283,50.22897
404426.5,428.3196,240.4913,64.9702,50.25204
404447.6,428.2686,240.711,64.96758,50.27776
404459.7,428.0722,241.0213,64.9575,50.31404
404475.1,427.8331,241.4607,64.94523,50.36531
404491.9,427.4906,242.0569,64.92762,50.43471
