Time Stamp(ms),Intersection,,Angle,
,x,y,x,y
586131.4,310.942,236.8212,57.2506,49.81828
586143.6,310.8166,236.9208,57.24009,49.83015
586156.6,310.7675,236.9781,57.23596,49.83698
586172,310.7233,237.115,57.23225,49.85329
586191.1,310.7447,237.2426,57.23405,49.86847
586210.9,310.7325,237.4435,57.23303,49.89237
586225.3,310.7207,237.541,57.23204,49.90396
586241.3,310.7156,237.7113,57.23161,49.92419
586258.1,310.7191,237.6944,57.23191,49.92218
586274.3,310.6639,237.7905,57.22727,49.93359
586291.2,310.5963,237.6845,57.2216,49.92102
586308.1,310.4746,237.6633,57.21138,49.91849
586324.8,310.3379,237.93,57.19988,49.95015
586345.4,310.233,238.2612,57.19106,49.9894
586367.1,309.9817,238.8902,57.16992,50.06377
586381.5,309.6152,239.2317,57.13903,50.10405
586394.3,308.674,239.6776,57.05947,50.15655
586409.2,307.1288,240.0772,56.92813,50.20349
586425.2,305.7156,240.1796,56.80718,50.21551
586442.3,304.045,240.0819,56.66319,50.20404
586460.4,302.3628,239.881,56.51707,50.18045
586478.1,300.5292,239.5906,56.35653,50.14632
586492.5,298.0259,239.2067,56.13512,50.1011
586509.6,295.9084,238.8022,55.94584,50.05338
586527.1,293.5638,238.2739,55.73407,49.9909
586544.3,291.7458,237.6945,55.56826,49.9222
586558.6,290.2306,237.1871,55.42899,49.86187
586573.7,288.7725,236.3508,55.29404,49.76211
586598.1,287.4467,235.5095,55.17053,49.66133
586621.3,286.0035,234.5131,55.03521,49.54143
586640.1,285.2426,233.9834,54.96349,49.47745
586655.5,284.5424,233.4705,54.89727,49.41534
586665.6,284.048,232.7918,54.85038,49.33291
586677.1,283.262,231.841,54.77561,49.21697
586694.3,282.4472,230.7198,54.69781,49.07954
586711,281.5808,229.5565,54.61475,48.93615
586728.8,280.5784,228.4804,54.51823,48.80276
586743.6,279.2411,227.36,54.38874,48.66313
586759.7,277.9839,226.4891,54.26627,48.55405
586782.4,276.9595,225.6823,54.16592,48.45259
586796.1,276.1918,225.2073,54.09041,48.39265
586808.6,275.1143,224.2138,53.98396,48.26686
586829.4,274.3577,223.5701,53.90887,48.18502
586843.1,273.7184,223.0149,53.84522,48.11422
586859,273.1331,222.6494,53.78678,48.06749
586876.4,272.6444,222.2705,53.73786,48.01897
586898.1,271.9158,222.0276,53.66471,47.98783
586913.6,271.1505,221.7735,53.5876,47.95519
586924.6,270.196,221.2156,53.49103,47.88341
586941.5,269.3038,220.2635,53.40036,47.76045
586960.1,268.7373,219.4445,53.34259,47.6542
586975.8,268.1496,218.497,53.2825,47.53075
586992.3,267.3829,217.8009,53.20385,47.43967
587009.5,266.3697,217.4361,53.09946,47.39182
587026.8,265.072,217.0765,52.965,47.34457
587042.8,264.1476,216.6931,52.86873,47.29409
587060.1,263.2008,216.222,52.76966,47.23193
587079.4,262.4525,215.9152,52.69106,47.19138
587095.1,261.646,215.6049,52.60601,47.1503
587113.8,260.9156,215.413,52.52871,47.12486
587125.3,260.2207,214.9676,52.4549,47.06572
587142.6,259.6058,214.6892,52.38939,47.0287
587160.5,258.7667,214.3128,52.29967,46.97855
587177.6,257.916,214.1253,52.20835,46.95353
587194.6,257.1105,213.7775,52.12152,46.90707
587209.6,256.3159,213.2719,52.03555,46.83938
587227.6,255.7038,212.7475,51.96909,46.76899
587243.4,255.1063,212.2492,51.90402,46.70194
587261.4,254.4198,211.6524,51.82903,46.62141
587277.8,253.4959,211.0742,51.72771,46.54316
587293.6,252.228,210.5696,51.58792,46.47469
587309.3,251.0679,210.1283,51.45927,46.41465
587326.1,249.9179,209.5093,51.33101,46.33023
587343.1,248.7863,208.9967,51.2041,46.26013
587360.1,247.6575,208.3843,51.07681,46.17615
587377.1,246.6676,207.8831,50.96459,46.1072
587392.7,245.6351,207.4212,50.84697,46.04353
587411.4,244.7567,207.0856,50.74644,45.99717
587428.1,243.8353,206.8484,50.64051,45.96436
587445,242.7095,206.5397,50.51045,45.92159
587461.8,241.4673,206.1894,50.36608,45.87299
587477.9,240.0485,205.7782,50.20012,45.81583
587493.3,238.9394,205.5559,50.06958,45.78487
587508.7,237.8716,205.5792,49.94322,45.78812
587527.8,237.1295,205.5708,49.85501,45.78695
587542.6,236.1471,205.692,49.73774,45.80383
587559.9,235.073,205.694,49.60888,45.80411
587576.7,234.0783,205.6382,49.48893,45.79633
587592.4,232.8852,205.7098,49.34427,45.8063
587609.7,231.5121,205.9071,49.17674,45.83376
587626.6,230.1137,205.8557,49.00493,45.82661
587643.9,228.7488,205.4872,48.83609,45.77531
587661.4,227.5077,205.0471,48.68158,45.71389
587677.1,226.4236,204.8352,48.54583,45.68429
587692,225.0328,204.6105,48.3706,45.65285
587710.3,223.634,204.6272,48.19315,45.65519
587727.8,222.4108,204.7101,48.03695,45.66679
587742.7,221.0334,204.7219,47.85993,45.66845
587759.6,219.9365,204.5053,47.71807,45.63812
587776.9,218.7809,204.2375,47.56779,45.60059
587793.9,217.9667,204.1255,47.4614,45.58488
587809.8,217.238,203.9908,47.3658,45.56598
587827.1,216.1713,204.3976,47.22524,45.62303
587859.6,214.988,204.5071,47.06844,45.63837
587876.7,214.01,204.4352,46.93813,45.6283
587888.8,213.4134,204.3441,46.85834,45.61554
587897.9,212.6652,204.336,46.75793,45.6144
587914.8,212.1623,204.3468,46.69023,45.61592
587929.8,211.6537,204.6988,46.62159,45.6652
587947.8,211.1026,205.1254,46.54701,45.72483
587964.6,210.4174,205.6689,46.45399,45.80061
587980.5,209.9427,206.0421,46.38937,45.85252
587993.9,209.3822,206.2277,46.31287,45.87831
588011.6,208.8327,206.2007,46.23766,45.87455
588028.9,208.1917,205.9636,46.14967,45.84162
588048.4,207.6074,205.92,46.06921,45.83555
588063.5,207.2171,205.989,46.01534,45.84514
588077.9,207.1342,206.2465,46.00389,45.88092
588097.3,206.8974,206.4781,45.97114,45.91305
588112.8,206.4483,206.6118,45.90892,45.93159
588134,206.0958,206.5606,45.85999,45.9245
588147.3,205.7692,206.5792,45.81457,45.92707
588161.3,205.5603,206.6993,45.78548,45.94371
588178.9,205.4726,206.8866,45.77327,45.96965
588194.1,205.3895,206.9961,45.76168,45.98479
588211.1,205.2375,207.312,45.74048,46.02846
588226.9,205.0143,207.8389,45.70932,46.10112
588243.6,204.6476,208.6456,45.65804,46.21201
588261.1,204.2399,209.3667,45.60093,46.31075
588276.8,203.6255,210.4512,45.51463,46.45859
588292.6,202.9527,211.2201,45.41984,46.56293
588310.1,202.39,211.9295,45.34031,46.65882
588326.9,201.7246,212.6557,45.24597,46.75665
588343.9,201.2213,213.3965,45.1744,46.85608
588361.2,200.7366,214.1613,45.10532,46.95834
588377.3,200.123,215.1367,45.01761,47.0882
588393.1,199.336,216.3714,44.90473,47.25167
588413.3,198.6097,217.6454,44.80016,47.41929
588428.9,198.135,218.7308,44.73161,47.56126
588445.9,197.695,219.729,44.66793,47.69116
588464.3,197.2388,220.7763,44.60175,47.82675
588481.2,196.8955,221.7578,44.55184,47.95318
588495.7,196.7863,222.7156,44.53595,48.07596
588514.8,197.0402,223.1161,44.57288,48.12712
588532.5,197.3477,223.4921,44.61756,48.17507
588548.5,197.7905,223.8607,44.68176,48.222
588566.4,198.1003,224.565,44.7266,48.3114
588590.6,198.4195,225.4364,44.77271,48.42159
588606.4,198.5543,225.9611,44.79216,48.4877
588617.6,198.5963,226.3093,44.79823,48.53148
588630.7,198.8576,226.7793,44.8359,48.59045
588646.8,199.2669,227.3759,44.8948,48.66512
588670.6,199.6471,227.7712,44.9494,48.71447
588680.9,199.8625,228.4626,44.9803,48.80055
588695.9,199.8535,229.381,44.97901,48.91444
588712.1,199.7098,230.6575,44.9584,49.07189
588733.8,199.597,231.8924,44.94221,49.22324
588750.9,199.503,232.6506,44.92873,49.31573
588766.3,199.4411,233.2936,44.91983,49.39388
588780.2,199.3494,233.654,44.90666,49.43758
588798.6,199.2654,233.9921,44.89458,49.4785
588815.3,199.07,234.6556,44.86648,49.55862
588831.6,198.8392,235.2849,44.83325,49.63435
588847.3,198.2585,236.1411,44.74945,49.73703
588864.3,197.025,237.1189,44.57067,49.85376
588883.3,195.8096,237.5374,44.39344,49.90354
588900.4,193.931,237.7923,44.11736,49.9338
588915.4,192.2352,237.9653,43.86591,49.95434
588928.8,190.1259,237.9553,43.55015,49.95315
588945.7,187.2805,237.5253,43.1189,49.9021
588963.4,184.7452,237.0806,42.72946,49.84919
588982,182.3498,236.6923,42.35696,49.80289
589000.9,180.0475,236.2684,41.99474,49.75225
589014.9,177.5842,235.9165,41.60254,49.71013
589031.3,174.7399,235.4609,41.1437,49.65549
589049.6,172.16,235.0867,40.72187,49.61053
589065.6,169.639,234.519,40.30445,49.54215
589081.8,167.3063,233.9669,39.91354,49.47546
589098.8,165.2074,233.3872,39.55796,49.40524
589114.5,162.6211,232.7348,39.11476,49.32598
589131.3,160.3056,232.2511,38.71314,49.26705
589148.4,158.3662,232.0003,38.37328,49.23643
589165.4,156.561,231.9385,38.05402,49.22888
589181.8,154.6342,231.8464,37.71015,49.21762
589199.6,152.9042,231.705,37.39867,49.20034
589214,151.1704,231.3974,37.08388,49.16269
589230.9,149.7703,231.3146,36.82776,49.15254
589248.2,148.9632,231.2671,36.67933,49.14671
589273.7,148.0798,231.3143,36.5162,49.1525
589289.1,147.741,231.3002,36.45347,49.15078
589300.4,147.1262,231.3542,36.33934,49.15739
589314.8,146.9581,231.7065,36.3081,49.20052
589330.4,146.8119,232.0939,36.28088,49.24787
589347.6,146.8548,232.6134,36.28888,49.3112
589365.3,146.7981,233.1757,36.27831,49.37958
589383.6,146.8674,233.5907,36.29121,49.42991
589398.1,147.1147,233.8365,36.33722,49.45969
589414.5,147.4332,234.0289,36.39637,49.48295
589431.8,147.8656,234.57,36.47656,49.54829
589448.3,148.4165,235.0325,36.57846,49.60401
589466.5,149.0394,235.5586,36.69336,49.66722
589483.1,149.5852,236.1825,36.79377,49.74198
589499.8,150.1433,236.7756,36.89617,49.81283
589514.3,150.809,237.3315,37.01794,49.87906
589531.6,151.4214,237.9209,37.12963,49.94907
589547.8,152.0005,238.5596,37.23492,50.02471
589565.1,152.7859,239.1125,37.37727,50.09
589582.6,153.3502,240.0311,37.47921,50.19808
589597.9,153.9612,241.2273,37.58928,50.33809
589613.6,154.9312,242.8316,37.76338,50.52458
589631.6,155.9419,244.1632,37.94389,50.67826
589648.1,156.9498,245.6353,38.12302,50.847
589665.5,157.8057,246.5752,38.27445,50.95409
589684.4,158.6377,247.3754,38.42104,51.04488
589699.9,159.8063,248.6386,38.62595,51.18748
589720.9,161.2134,250.0723,38.87114,51.34827
589735.9,162.5004,251.1591,39.09392,51.46941
589751.3,163.6541,251.8357,39.29245,51.5445
589776.4,164.5752,252.2245,39.45014,51.58754
589788.3,165.3048,252.6794,39.57455,51.63779
589802.6,166.3289,253.4337,39.74842,51.72088
589821.1,167.4104,254.2853,39.93109,51.81431
589838.7,168.833,255.7139,40.16988,51.97018
589859.6,169.699,256.4258,40.31444,52.04745
589870.2,170.8164,257.2278,40.50005,52.13419
589885.8,172.0253,258.0332,40.6997,52.22095
589902.2,173.3284,258.886,40.91358,52.31245
589919.7,174.2484,259.7879,41.06374,52.40881
589935.4,175.2289,260.8568,41.22305,52.52247
589951.7,176.6003,262.3685,41.44455,52.68221
589969.5,178.2891,263.9243,41.71527,52.84541
589985.7,180.2986,265.5806,42.03444,53.0178
590002.2,181.9764,266.569,42.29849,53.12003
590018.8,183.8569,267.3344,42.59185,53.19886
590034.7,186.5159,268.4767,43.00197,53.31597
590052.3,189.0255,269.8004,43.38411,53.45088
590069.6,191.3867,271.0995,43.7393,53.58245
590085.5,193.4415,272.1813,44.045,53.69139
590101.9,195.1041,272.9071,44.29006,53.76418
590118.8,197.2692,273.7698,44.60616,53.85035
590140.8,199.1364,274.4487,44.87604,53.91792
590154.4,201.0813,275.1385,45.15447,53.98635
590170.1,202.8273,275.886,45.40214,54.06025
590185.4,204.2606,276.486,45.60383,54.11938
590203.8,205.7006,276.9752,45.80503,54.16747
590219.4,207.2349,277.5893,46.01781,54.22767
590236.1,209.0449,278.4216,46.26674,54.30898
590253.7,210.4406,278.9784,46.45715,54.36321
590269.3,211.4455,279.5623,46.59343,54.41992
590287,212.4037,280.1246,46.72274,54.47438
590306.7,213.4591,280.7775,46.86446,54.53743
590320.3,214.6677,281.4121,47.02583,54.59854
590336.4,216.115,282.1023,47.2178,54.66478
590351.9,217.5641,282.8589,47.40863,54.73716
590367.7,218.9019,283.4646,47.58358,54.79491
590388.6,220.2452,283.8096,47.75808,54.82774
590402.4,221.6099,284.3455,47.93416,54.87861
590421.1,223.1574,284.8636,48.1324,54.92768
590440.2,224.5205,285.473,48.30576,54.98523
590455.5,225.3606,285.9604,48.41202,55.03115
590467.3,226.3702,286.4918,48.53913,55.0811
590485.8,227.541,286.9653,48.68574,55.1255
590505.4,228.7553,287.2654,48.83691,55.15358
590519,229.9758,287.6201,48.98792,55.18673
590536.3,231.0913,288.1167,49.12516,55.23305
590554,232.0935,288.6321,49.24781,55.281
590569.6,233.2382,289.0283,49.38715,55.31778
590587.2,234.2245,289.1166,49.50659,55.32597
590603.4,234.7866,288.9594,49.5744,55.31139
590620.6,235.1944,288.9651,49.62347,55.31192
590636.6,235.7042,289.056,49.68468,55.32035
590654.7,236.3604,288.9782,49.76325,55.31313
590669.7,237.2527,288.921,49.86969,55.30783
590687.9,238.1679,288.9297,49.97835,55.30863
590705.6,238.8613,288.884,50.06035,55.3044
590721.8,239.511,288.9012,50.13695,55.30599
590738.9,240.404,288.8887,50.24181,55.30482
590750.9,241.388,288.9008,50.35683,55.30596
590772.6,242.169,288.9929,50.44773,55.3145
590788.3,242.8968,289.101,50.53213,55.32452
590802.3,243.7537,289.1281,50.63111,55.32703
590819.3,244.7155,289.0988,50.74171,55.32432
590835.8,246.045,288.7131,50.89374,55.28852
590856.5,246.9803,288.4565,51.0001,55.26467
590869.6,247.879,288.4667,51.10184,55.26562
590885.3,248.8039,288.4798,51.20609,55.26683
590901.8,249.7195,288.6641,51.30881,55.28397
590919.1,250.8929,288.803,51.4398,55.29688
590935.5,252.017,288.761,51.56458,55.29298
590951.4,253.1613,288.5669,51.6909,55.27494
590968.8,254.2189,288.5422,51.80704,55.27264
590985.4,255.391,288.417,51.93504,55.261
591002.2,257.0046,288.3309,52.11008,55.25299
591018.8,258.7093,288.2407,52.29352,55.24459
591035.3,260.5889,288.1043,52.49404,55.23188
591052.6,262.3356,287.9968,52.67875,55.22187
591069,263.7246,287.8483,52.82453,55.20802
591085.4,265.2876,287.4256,52.9874,55.16856
591103.3,266.8076,287.4268,53.14463,55.16867
591119.8,268.2383,287.3723,53.29158,55.16358
591135.8,269.5918,287.2698,53.42967,55.15399
591153.6,270.6005,287.2601,53.53201,55.15308
591169,271.6212,287.1595,53.63506,55.14368
591185.4,272.8349,287.0932,53.75694,55.13747
591203.1,274.1305,286.9279,53.88628,55.12199
591220.5,275.2452,286.902,53.99691,55.11956
591236.3,276.2021,286.858,54.09143,55.11544
591251.8,276.9978,286.9229,54.16969,55.12152
591270.1,277.5252,287.2973,54.2214,55.15657
591287.1,278.1077,287.8504,54.27835,55.20822
591302.6,278.7014,288.5129,54.33625,55.26992
591320.6,279.014,289.1433,54.36667,55.32845
591336.9,279.2051,289.898,54.38524,55.39829
591352.6,279.3654,291.0699,54.40081,55.50626
591370.1,279.7059,292.2858,54.43384,55.61766
591386.6,280.2813,293.8133,54.48953,55.75671
591403.7,280.9067,295.1769,54.54989,55.88001
591420.8,281.4429,296.2626,54.6015,55.97763
591437.1,282.1617,297.1367,54.67047,56.05587
591453.6,283.2547,298.0676,54.77492,56.13883
591471.1,284.6445,298.5686,54.90694,56.18334
591487.1,286.7758,298.8061,55.10774,56.2044
591504.6,288.9931,298.9693,55.31452,56.21886
591520.9,291.4535,299.0146,55.54147,56.22288
591537.6,294.4855,298.7925,55.81759,56.2032
591557.3,298.262,298.0176,56.15612,56.13439
591570.6,301.448,297.2428,56.43714,56.06534
591587.6,304.3871,296.5938,56.69276,56.00731
591607.1,307.3484,296.084,56.94685,55.9616
591623.1,310.3318,295.9427,57.19937,55.94892
591638.1,313.1337,295.927,57.43344,55.9475
591654.9,316.6393,295.7945,57.72212,55.9356
591677.6,319.7094,295.2933,57.97122,55.8905
591691.6,322.4667,294.7012,58.19202,55.83709
591708.8,325.203,294.1336,58.40846,55.78575
591725.5,327.9786,293.603,58.62533,55.73763
591742.1,330.4411,293.24,58.81551,55.70463
591759.4,333.0741,292.7969,59.01657,55.6643
591775.6,335.9501,291.7424,59.23354,55.56795
591790.6,338.5181,290.8841,59.42497,55.48918
591808.6,341.2004,290.1536,59.62263,55.42189
591826.1,343.3617,289.633,59.78022,55.37379
591842.6,345.3895,288.9875,59.92674,55.31399
591859.1,347.1994,288.096,60.05643,55.23111
591874.4,348.932,286.9892,60.17963,55.12773
591890.3,350.5453,286.0987,60.29353,55.04416
591906.8,351.8845,285.1123,60.38747,54.95119
591924.3,353.0452,284.2796,60.46846,54.87236
591939.7,354.2982,283.2115,60.55544,54.7708
591957.8,355.5383,282.1404,60.64106,54.66844
591973.6,356.5689,281.0801,60.71188,54.56659
591991.6,357.5495,280.0012,60.77896,54.46244
592008.6,358.7462,278.7449,60.86045,54.34049
592026.5,360.0002,277.6508,60.94541,54.2337
592041.5,361.4056,276.6511,61.04008,54.13562
592061.8,362.8346,275.6773,61.13577,54.03964
592075.8,364.1578,274.8292,61.22386,53.95569
592089.8,365.7354,273.9301,61.32824,53.86633
592107.3,367.4117,273.0749,61.4384,53.78096
592126.7,368.9722,272.5024,61.54026,53.72362
592141.3,370.6189,272.1267,61.64702,53.68591
592159.2,372.0669,271.9545,61.74029,53.66859
592175.4,373.7983,271.7327,61.85108,53.64628
592190.1,375.6873,271.1979,61.97105,53.59238
592208.4,377.6689,270.6711,62.0959,53.53915
592223.7,379.9729,269.9121,62.23977,53.46223
592242.1,381.9167,269.4236,62.3601,53.41256
592259.6,383.9009,269.008,62.48194,53.37022
592273.9,386.1259,268.7477,62.61739,53.34365
592290.9,387.8687,268.6154,62.72263,53.33015
592308.3,389.7401,268.092,62.83481,53.2766
592322.7,391.7294,267.3832,62.95312,53.20388
592343,393.2471,266.856,63.04274,53.14962
592358.3,394.7906,266.397,63.13333,53.10228
592374.4,396.3305,265.9443,63.22315,53.05547
592391.7,397.6396,265.4661,63.29906,53.00593
592407.3,398.9026,264.7947,63.37194,52.93617
592424.6,399.9931,264.1544,63.43456,52.86944
592441.3,400.9283,263.4044,63.48804,52.79101
592458.3,401.8279,262.667,63.5393,52.71362
592473.3,402.6485,261.8592,63.5859,52.62852
592489.7,403.3049,260.9116,63.62306,52.52828
592506.8,403.8891,260.2662,63.65606,52.45974
592522.9,404.3119,259.5014,63.67989,52.37824
592539.2,404.6465,258.8197,63.69872,52.30535
592560.3,404.9301,258.1476,63.71466,52.23324
592577.5,405.1031,257.364,63.72438,52.14888
592589.1,405.4426,256.5219,63.74343,52.05786
592607.1,405.7991,255.7312,63.7634,51.97206
592624.3,406.1177,255.0126,63.78123,51.8938
592643.6,406.4903,254.4034,63.80204,51.82723
592660.6,406.8679,253.908,63.82311,51.77296
592678.4,407.2968,253.3517,63.847,51.71185
592694,407.6962,252.56,63.86922,51.62461
592710.9,407.9549,251.4603,63.88358,51.50287
592726.3,408.2051,250.9146,63.89747,51.44221
592743.6,408.6272,249.5361,63.92085,51.28827
592757.8,409.105,248.4967,63.94728,51.1715
592773.6,409.6434,247.2814,63.97701,51.03424
592789.8,410.2906,245.7581,64.01265,50.86102
592806.9,410.8384,244.2359,64.04275,50.68662
592824,411.3047,242.227,64.06831,50.45448
592840.9,411.6619,240.5612,64.08787,50.26022
592857.8,412.1194,239.0217,64.11288,50.07929
592874.3,412.6808,237.3768,64.1435,49.88444
592890.8,413.3513,235.9363,64.17999,49.71251
592907.5,413.8448,234.9897,64.20678,49.59886
592924.1,414.2272,234.0328,64.2275,49.48343
592940.4,414.4566,233.2788,64.23992,49.39209
592957.5,414.7553,232.3175,64.25607,49.27514
592974.3,415.0987,231.3111,64.27462,49.15211
592991.6,415.4235,230.5499,64.29214,49.05865
593008.6,415.5834,230.2203,64.30076,49.01807
593030.1,415.7511,229.8176,64.30979,48.96841
593045.9,415.871,229.2944,64.31625,48.90373
593065.2,416.0906,228.7763,64.32806,48.83951
593078.8,416.3799,228.1925,64.3436,48.76696
593094.3,416.6159,227.778,64.35627,48.71532
593114.5,416.8042,227.617,64.36637,48.69523
593128.3,417.0973,227.1696,64.38207,48.63932
593143.8,417.7479,226.423,64.41688,48.54576
593160.9,418.3363,225.8271,64.44827,48.47083
593178.1,418.8288,225.1916,64.47449,48.39067
593193.3,419.2384,224.4738,64.49627,48.29984
593219.2,419.6914,223.954,64.5203,48.23386
593231.3,420.1108,223.5867,64.54252,48.18713
593255.9,420.8202,222.9454,64.58002,48.10534
593269.5,421.2671,222.5493,64.60358,48.05469
593283.9,421.6197,222.3032,64.62215,48.02316
593295.6,421.9259,221.9814,64.63826,47.9819
593311.3,422.2445,221.4505,64.655,47.91367
593329.6,422.5425,220.8668,64.67062,47.83842
593353.9,422.7246,220.478,64.68018,47.7882
593370.9,422.6107,220.3455,64.67421,47.77106
593382.3,422.6529,220.1631,64.67641,47.74745
593397.9,422.6938,219.9517,64.67856,47.72005
593415.6,422.7751,219.6724,64.68282,47.68381
593430.2,422.7513,219.201,64.68157,47.62254
593445.7,422.5699,218.4606,64.67207,47.52599
593465.3,422.3267,218.0211,64.65931,47.46853
593480.8,422.0659,217.5113,64.64561,47.40169
593496.8,421.7762,216.8505,64.63039,47.31483
593515.1,421.5824,216.2105,64.62019,47.23042
593531.1,421.3132,215.698,64.60602,47.16263
593546.7,420.9535,215.264,64.58705,47.10509
593566.9,420.7321,214.7171,64.57536,47.0324
593580.1,420.5518,214.2578,64.56585,46.97121
593598.7,420.4958,213.65,64.56288,46.89001
593613.9,420.2314,212.9424,64.5489,46.79518
