Time Stamp(ms),Intersection,,Angle,
,x,y,x,y
1720873,315.351,235.1112,57.61656,49.61348
1720905,314.3921,234.2094,57.53759,49.50476
1720941,313.4658,233.7675,57.46098,49.45133
1720974,312.9049,234.1175,57.41443,49.49366
1721006,312.7704,235.4783,57.40326,49.65759
1721040,312.7536,238.1275,57.40186,49.97356
1721074,312.8734,238.7639,57.41182,50.04886
1721106,313.0851,237.4159,57.4294,49.8891
1721142,313.6185,237.1307,57.47363,49.85515
1721175,313.4241,236.3313,57.45752,49.75977
1721207,313.0447,235.4516,57.42605,49.65438
1721242,312.7028,234.8111,57.39763,49.57735
1721276,312.3915,233.8132,57.37172,49.45686
1721309,311.7582,232.6144,57.3189,49.31133
1721344,310.8946,231.682,57.24663,49.19752
1721382,309.4647,230.3729,57.12634,49.03687
1721413,308.1086,228.6187,57.01152,48.81995
1721450,307.3174,227.4418,56.9442,48.67335
1721479,306.31,225.5571,56.85814,48.43681
1721512,305.8703,223.3964,56.82046,48.16288
1721549,305.2921,221.5316,56.77078,47.9241
1721580,304.7191,219.6597,56.72142,47.68217
1721612,303.8998,217.9639,56.65062,47.46104
1721646,302.9736,215.9208,56.57026,47.19212
1721681,301.8885,214.6286,56.47568,47.02062
1721718,300.5544,213.6139,56.35874,46.88518
1721753,299.202,212.8857,56.23946,46.78756
1721786,297.8726,212.3459,56.12148,46.71495
1721821,296.5531,211.5549,56.00367,46.60822
1721851,295.1002,210.858,55.87309,46.51384
1721885,293.5876,211.0494,55.73623,46.5398
1721918,291.7057,211.7218,55.56458,46.63078
1721954,288.9458,212.5402,55.31013,46.74111
1721987,285.6939,213.2968,55.00606,46.84271
1722021,281.9441,213.8225,54.64962,46.91308
1722055,277.8045,214.5078,54.24872,47.00454
1722088,273.5204,217.1156,53.82547,47.34971
1722129,269.2209,220.6501,53.39192,47.81045
1722160,265.4471,224.0651,53.00396,48.24797
1722194,261.5753,228.7556,52.59854,48.83694
1722227,257.8952,233.4927,52.20611,49.41803
1722262,254.5409,239.0577,51.84228,50.08354
1722297,251.5398,244.2878,51.5117,50.69259
1722329,248.5542,248.712,51.17799,51.19574
1722363,246.1001,252.2661,50.90002,51.59214
1722395,243.1035,254.4602,50.55605,51.83345
1722428,239.5011,256.7054,50.13578,52.07773
1722463,235.5047,260.6834,49.66075,52.50407
1722498,230.441,265.3494,49.04526,52.99382
1722529,225.1389,269.3403,48.38402,53.40408
1722564,219.4048,274.2678,47.64904,53.89994
1722598,212.7551,278.8647,46.77,54.35215
1722637,207.1978,282.5962,46.01268,54.71206
1722665,203.592,286.316,45.50992,55.06459
1722697,202.2785,289.4118,45.32452,55.35332
1722731,202.4359,292.1724,45.3468,55.6073
1722765,205.4088,294.1049,45.76437,55.78315
1722801,208.9557,295.7938,46.25451,55.93554
1722839,214.3308,298.175,46.98095,56.14838
1722866,220.1959,301.0457,47.75169,56.40189
1722902,226.695,304.5875,48.57988,56.71007
1722936,233.9287,308.5608,49.47084,57.04988
1722970,241.9651,312.8858,50.42404,57.41285
1723003,251.6096,316.4245,51.51943,57.70456
1723038,262.133,318.8232,52.6574,57.89967
1723070,272.9639,320.1144,53.76985,58.00382
1723104,283.9086,320.7462,54.83714,58.05457
1723139,293.6939,321.1588,55.74587,58.08763
1723172,302.8396,321.7613,56.55861,58.13579
1723205,310.651,322.1882,57.22618,58.16984
1723239,317.2373,323.0775,57.77091,58.24057
1723272,322.7647,323.5401,58.21572,58.27724
1723308,327.8389,324.1103,58.61448,58.32235
1723341,333.529,324.8143,59.05107,58.37788
1723382,339.4284,325.0328,59.49231,58.39508
1723409,345.9233,324.4337,59.9651,58.34788
1723444,352.7489,323.0781,60.44783,58.24061
1723475,359.1133,321.8313,60.88537,58.14138
1723513,364.88,320.6535,61.27174,58.04713
1723548,370.4203,319.889,61.63419,57.98568
1723582,374.628,318.5277,61.90389,57.87575
1723613,377.9859,317.3181,62.11578,57.77749
1723646,380.4335,315.608,62.26838,57.63767
1723681,382.1155,313.6973,62.37235,57.48015
1723714,383.2427,312.5519,62.44163,57.38508
1723748,383.8584,311.6691,62.47934,57.31146
1723785,384.7322,310.6304,62.53269,57.22446
1723818,385.3403,308.7466,62.56971,57.06562
1723849,385.3928,305.4828,62.5729,56.78717
1723884,385.4698,303.0278,62.57757,56.57497
1723920,385.6254,301.7234,62.58702,56.46125
1723954,386.4163,300.1509,62.63498,56.32323
1723987,386.8313,298.0078,62.66007,56.13351
1724020,386.9285,295.664,62.66595,55.92387
1724052,387.205,293.6996,62.68264,55.74639
1724087,387.5699,291.6849,62.70464,55.56268
1724120,388.6687,289.8419,62.77069,55.39311
1724156,389.7402,288.3004,62.83482,55.25014
1724190,390.7976,286.204,62.89782,55.05406
1724223,391.9241,284.0546,62.96465,54.85101
1724257,393.1192,282.4393,63.03521,54.69705
1724290,394.5295,279.7125,63.11805,54.43448
1724323,395.6061,277.4446,63.18097,54.2135
1724356,396.8749,275.7719,63.25477,54.04898
1724393,398.3067,273.6212,63.3376,53.83553
1724424,399.7424,271.8339,63.42019,53.65647
1724467,401.0743,270.2749,63.49637,53.49902
1724507,401.9404,268.9529,63.5457,53.3646
1724532,402.8763,267.3624,63.5988,53.20174
1724565,404.365,265.9064,63.68288,53.05155
1724601,405.6046,264.2421,63.75251,52.87859
1724639,406.6965,262.7587,63.81356,52.72326
1724670,407.5905,260.9964,63.86334,52.53727
1724703,408.3378,258.5846,63.90482,52.28016
1724742,409.1678,255.4017,63.95076,51.93621
1724774,409.4882,253.1975,63.96844,51.69489
1724804,409.5486,251.6597,63.97178,51.52499
1724838,409.7903,249.9853,63.9851,51.33855
1724871,409.9384,248.2001,63.99326,51.13808
1724907,410.0121,246.6227,63.99732,50.95949
1724944,409.9194,244.9863,63.99221,50.77275
1724975,409.7664,243.9617,63.98378,50.65507
1725007,409.4484,242.7328,63.96625,50.51314
1725040,408.731,241.3255,63.9266,50.34955
1725074,408.0363,240.397,63.8881,50.24099
1725113,407.3793,238.9741,63.85159,50.07368
1725149,406.3719,237.684,63.79543,49.92096
1725179,404.1786,237.0211,63.67238,49.8421
1725213,401.919,235.3564,63.54448,49.64294
1725248,399.5836,233.5424,63.41107,49.42406
1725284,397.4196,232.0423,63.28633,49.24156
1725318,395.2591,229.825,63.16071,48.96931
1725350,393.1053,227.1541,63.03439,48.63739
1725386,390.8067,225.0763,62.89836,48.3761
1725421,388.4404,223.325,62.75699,48.15379
1725451,385.9708,221.5008,62.60799,47.92013
1725487,383.7467,220.1359,62.4725,47.74392
1725520,381.1114,218.9471,62.31036,47.58947
1725553,377.7679,217.8141,62.10211,47.44141
1725587,374.0598,217.3115,61.86775,47.37546
1725623,369.2227,217.2679,61.55655,47.36973
1725657,364.2936,217.0159,61.23288,47.33659
1725689,358.9729,216.6121,60.87585,47.28342
1725722,352.7945,216.189,60.451,47.22758
1725756,345.6407,215.4751,59.9448,47.1331
1725789,338.0309,214.3949,59.38881,46.98949
1725825,331.0762,212.9757,58.86422,46.79964
1725857,323.9699,211.8085,58.31125,46.64249
1725894,316.5659,209.7867,57.71612,46.3681
1725936,311.513,208.3675,57.29841,46.17384
1725960,306.46,207.0173,56.87098,45.98772
1725993,301.7573,205.2628,56.46421,45.74401
1726029,298.196,203.4939,56.15025,45.49611
1726060,294.2137,201.7684,55.793,45.25219
1726100,290.8658,200.2318,55.4875,45.03318
1726127,287.9106,199.0023,55.21384,44.85673
1726161,284.7017,197.7949,54.91236,44.68239
1726203,281.7307,196.5007,54.62914,44.49436
1726233,279.3126,195.3847,54.39569,44.33122
1726265,276.79,193.7237,54.14928,44.08673
1726303,274.8321,192.8748,53.95598,43.96099
1726336,272.9658,192.0798,53.77005,43.84275
1726367,271.4075,191.1077,53.61353,43.69754
1726403,270.3007,190.1744,53.50164,43.55745
1726436,269.1906,189.3892,53.38883,43.43908
1726483,268.1978,188.5409,53.28743,43.31069
1726523,266.8947,188.3157,53.15361,43.27651
1726553,266.3245,188.2328,53.09478,43.26392
1726574,265.5812,188.0948,53.01786,43.24295
1726603,265.2429,187.7191,52.98276,43.18578
1726639,265.3007,186.9271,52.98877,43.06492
1726675,265.7887,186.0696,53.03936,42.93351
1726709,266.1273,185.6403,53.0744,42.86752
1726742,266.7065,185.2732,53.13422,42.81098
1726776,267.4245,184.926,53.20812,42.7574
1726808,268.1781,184.3816,53.28541,42.67321
1726843,268.8014,183.3331,53.34914,42.51041
1726878,269.1833,182.7052,53.38809,42.41251
1726911,269.7096,182.6157,53.44165,42.39853
1726946,270.5313,182.3735,53.52501,42.36067
1726979,271.9041,182.1371,53.66353,42.32367
1727012,274.089,182.2972,53.88215,42.34874
1727050,276.4418,182.5196,54.11503,42.38352
1727082,279.7816,183.0488,54.44117,42.46612
1727116,283.6395,183.5715,54.81155,42.5475
1727147,288.1718,182.681,55.23818,42.40873
1727180,293.6061,181.4695,55.73791,42.21895
1727217,298.547,180.3696,56.18142,42.04565
1727249,303.0482,179.2885,56.57674,41.8744
1727284,307.8082,178.3823,56.98599,41.73013
1727318,312.2838,176.8259,57.36275,41.48084
1727350,318.618,174.8047,57.88306,41.15421
1727384,325.9756,173.7625,58.4691,40.98453
1727418,332.2832,173.0291,58.95643,40.86457
1727451,338.5974,172.1239,59.43085,40.71592
1727485,343.872,172.0995,59.81721,40.71191
1727518,348.7756,172.4829,60.16855,40.77496
1727552,353.229,172.56,60.48125,40.78763
1727585,356.5352,172.8198,60.70956,40.83027
1727618,359.4748,173.3875,60.90987,40.92324
1727655,361.6325,173.8535,61.05532,40.99937
1727684,363.2737,174.2423,61.16505,41.06276
1727719,364.7841,174.6086,61.26538,41.12236
1727756,365.9126,175.117,61.33992,41.20491
1727785,366.4463,175.3067,61.37506,41.23565
1727818,366.7172,175.6765,61.39286,41.2955
1727854,367.3241,176.2369,61.43267,41.386
1727890,367.8696,176.7774,61.46836,41.47305
1727920,368.2644,176.9776,61.49414,41.50523
1727960,368.7317,176.909,61.5246,41.4942
1727994,369.0878,176.9536,61.54778,41.50137
1728021,369.2032,177.5811,61.55528,41.60205
1728058,369.4947,178.4486,61.57421,41.74071
1728087,369.5924,179.3534,61.58055,41.88471
1728127,369.6095,180.2602,61.58167,42.02837
1728161,369.6718,181.2606,61.58571,42.18611
1728188,369.9134,182.4992,61.60137,42.38033
1728226,369.9921,183.4835,61.60647,42.53382
1728263,369.5153,184.7528,61.57555,42.73063
1728297,368.3847,186.1366,61.50199,42.94381
1728328,366.8232,186.815,61.39982,43.04778
1728360,364.3954,187.7321,61.23963,43.18776
1728396,360.8757,188.9844,61.00445,43.37788
1728428,357.0168,189.4167,60.74255,43.44324
1728466,353.0147,190.2086,60.46634,43.56259
1728498,348.7778,191.316,60.1687,43.72872
1728533,344.4943,193.1881,59.86221,44.00747
1728566,340.3267,194.6457,59.5585,44.22269
1728600,335.4888,194.1599,59.19893,44.15114
1728633,330.0434,195.0203,58.78494,44.27776
1728668,323.7852,196.6906,58.29664,44.52201
1728703,315.9397,197.7309,57.66487,44.67313
1728734,307.1485,198.2098,56.9298,44.74242
1728770,298.0609,198.8258,56.13823,44.83131
1728802,289.5671,199.3773,55.3677,44.91066
1728840,281.9671,199.1023,54.65182,44.87113
1728876,272.9185,197.8697,53.76531,44.69323
1728910,267.1773,197.8517,53.1827,44.69062
1728938,261.4145,198.3772,52.58154,44.76661
1728974,255.2372,198.3169,51.91829,44.7579
1729004,250.3965,198.4623,51.38447,44.77888
1729041,246.1118,198.6072,50.90135,44.7998
1729072,242.7037,198.6437,50.50977,44.80506
1729107,240.1303,199.324,50.20972,44.90301
1729148,237.8086,200.2146,49.93575,45.03072
1729175,235.8642,200.6915,49.70387,45.09887
1729206,233.8741,200.9312,49.46423,45.13307
1729241,231.127,201.3617,49.12954,45.19439
1729279,227.5344,202.0806,48.68491,45.29649
1729310,224.0469,202.6766,48.24566,45.38084
1729344,220.878,203.3345,47.83987,45.47367
1729378,218.3683,204.2885,47.51394,45.60774
1729413,217.2988,205.1159,47.37379,45.7235
1729445,216.5767,205.6865,47.27875,45.80306
1729480,216.3266,206.7313,47.24575,45.94814
1729513,216.1007,207.7419,47.21591,46.08776
1729547,215.8208,207.7362,47.1789,46.08697
1729582,215.8651,208.0094,47.18475,46.1246
1729614,216.1451,208.876,47.22178,46.24359
1729647,216.9471,209.9319,47.32754,46.38789
1729682,217.7244,210.9844,47.42965,46.53099
1729713,218.7864,212.6917,47.56852,46.76149
1729748,220.5926,214.5287,47.80301,47.00732
1729785,223.5788,215.1086,48.18612,47.08446
1729822,226.223,215.4475,48.52063,47.12944
1729855,228.3731,216.7624,48.78942,47.30322
1729888,229.6007,218.6861,48.94162,47.55543
1729922,230.8613,219.8102,49.09693,47.7017
1729956,231.7951,220.3857,49.21136,47.77625
1729987,232.6896,220.9734,49.32048,47.85219
1730022,233.8345,222.4007,49.45943,48.03566
1730057,235.7701,225.0846,49.69259,48.37716
1730089,238.711,228.3315,50.04261,48.78424
1730125,243.0713,232.4001,50.55232,49.28521
1730158,246.7643,235.4242,50.97557,49.65109
1730190,250.2846,239.3475,51.37199,50.1177
1730225,253.0262,243.3338,51.67603,50.58265
1730260,255.4237,246.639,51.93861,50.96135
1730299,258.0516,247.8934,52.22292,51.10347
1730328,259.5898,247.2163,52.38767,51.02686
1730360,261.58,247.5794,52.59904,51.06797
1730395,264.3988,249.4194,52.89494,51.27519
1730428,267.043,251.8133,53.16888,51.54202
1730462,268.9447,253.8373,53.36376,51.7652
1730496,270.9947,255.7235,53.57186,51.97123
1730531,272.1182,257.1211,53.68505,52.12267
1730563,273.1261,258.6928,53.78608,52.29176
1730597,274.0515,261.0785,53.87841,52.54597
1730630,274.8772,262.6755,53.96045,52.71451
1730664,276.0955,264.2227,54.08091,52.87657
1730701,277.7765,265.304,54.24599,52.98911
1730737,278.7931,266.8325,54.34518,53.14719
1730773,279.8401,268.7633,54.44684,53.34525
1730800,281.3191,270.3326,54.58959,53.50488
1730833,282.7214,271.8397,54.72402,53.65705
1730869,283.953,273.5599,54.84136,53.82942
