Time Stamp(ms),Intersection,,Angle,
,x,y,x,y
791935.3,296.0201,243.206,55.95586,50.5679
791951.8,295.566,243.4083,55.91506,50.59127
791969.2,295.2233,243.0994,55.88419,50.55557
791986.3,294.754,242.8863,55.84186,50.53091
792002.7,294.0254,243.1304,55.77594,50.55915
792019.3,292.9135,243.7021,55.67492,50.62516
792035.5,291.8561,244.3954,55.57836,50.70496
792051.9,290.7747,245.0733,55.47911,50.78272
792069,289.8361,245.3293,55.39257,50.81202
792085.6,288.8242,245.5669,55.29884,50.83918
792102.9,287.8665,245.9485,55.20972,50.88273
792120.1,287.0711,246.3984,55.1354,50.93398
792137.8,286.417,246.7108,55.07407,50.96951
792154.4,286.2102,246.5991,55.05465,50.95681
792170.6,286.1914,246.1954,55.05288,50.91087
792187.8,286.4913,245.5782,55.08105,50.84048
792204.1,286.6325,244.8883,55.0943,50.76152
792224.3,286.7172,244.6451,55.10225,50.73363
792239.8,286.7676,244.352,55.10697,50.69997
792254.5,286.6832,244.2547,55.09906,50.68879
792269.1,286.4542,244.087,55.07756,50.6695
792286.4,286.2676,244.0038,55.06004,50.65992
792304.9,285.9391,243.9885,55.02915,50.65815
792322.1,285.6505,244.0727,55.00196,50.66785
792338.1,285.2256,243.489,54.96189,50.60057
792355,284.7974,242.8534,54.92141,50.5271
792371.1,284.4632,242.1537,54.88977,50.44596
792389.1,284.2107,241.4372,54.86582,50.36257
792404.8,283.9775,240.693,54.84369,50.27566
792422,283.7318,240.1279,54.82034,50.20945
792438.9,283.3176,239.3238,54.78091,50.11491
792455.3,282.7046,238.1837,54.72242,49.98022
792473.5,282.1517,236.7999,54.66952,49.81573
792487.8,281.4796,234.9044,54.60502,49.5886
792506.4,280.7215,232.7145,54.53203,49.32351
792524.5,279.8929,230.5556,54.45195,49.05936
792545.1,279.0204,228.8528,54.36729,48.84901
792558.3,278.2397,227.5329,54.29124,48.68473
792572.2,277.4651,226.1806,54.21551,48.51531
792588.4,276.7837,224.9006,54.14865,48.35389
792606.1,276.0531,223.4282,54.07674,48.16694
792624.8,275.2455,221.8254,53.99694,47.96186
792641.1,274.3439,219.9247,53.9075,47.71655
792657.3,273.4469,217.7602,53.81813,47.43434
792672.9,272.5027,215.1231,53.72366,47.08638
792690.8,271.6996,212.8637,53.64295,46.78461
792706,270.7491,210.1473,53.54705,46.41724
792724.6,269.5751,207.4579,53.42797,46.0486
792741.9,268.1882,204.99,53.28645,45.70592
792758,266.9754,202.6469,53.16192,45.37664
792771.8,265.3522,199.9249,52.99411,44.98924
792789.9,263.8255,197.5129,52.83508,44.64153
792806.3,262.0399,195.3962,52.64759,44.33291
792825,260.245,194.0125,52.45749,44.12939
792840.6,257.7232,192.6626,52.1876,43.92947
792856.9,255.3709,191.3578,51.93286,43.73496
792872.4,252.7581,190.1092,51.64647,43.54763
792888.6,249.7825,189.2866,51.31586,43.42358
792905,246.7374,188.4592,50.97252,43.29829
792924.8,243.4623,187.5964,50.5975,43.16708
792940.4,240.6248,186.6859,50.26767,43.02801
792957.6,237.6267,185.8603,49.91415,42.90135
792973.3,234.3411,185.2969,49.52068,42.81463
792990.3,230.9281,185.5112,49.10513,42.84764
793007.1,227.6467,185.2614,48.69893,42.80915
793023.8,224.7757,185.1435,48.33808,42.79097
793040,222.0773,184.7894,47.99419,42.73629
793057.3,219.6104,184.4753,47.67576,42.68772
793073.6,217.3802,184.1768,47.38449,42.64148
793089.8,215.4044,184.0262,47.12373,42.61813
793107.5,214.1474,184.158,46.95649,42.63856
793121.7,212.8233,184.5166,46.77917,42.69411
793138.6,211.6346,185.0869,46.619,42.78223
793157.3,210.3111,185.8878,46.43954,42.90559
793170.6,208.7108,187.1362,46.22095,43.09687
793191.1,207.0194,188.7402,45.98801,43.3409
793206.9,205.7056,190.56,45.80572,43.61541
793223.4,204.3819,191.7018,45.62083,43.78637
793241.9,203.6629,191.4814,45.5199,43.75344
793258.4,202.875,191.4332,45.40886,43.74624
793274.1,201.7695,191.9193,45.25235,43.81882
793290.4,200.7724,192.4244,45.11043,43.89407
793305.6,199.7492,192.7842,44.96405,43.94755
793322.6,198.8337,192.9488,44.83245,43.97197
793339.6,198.2471,193.178,44.74781,44.00597
793356.3,197.6066,193.9514,44.65511,44.12037
793374.1,197.1769,195.3012,44.59275,44.31898
793390.9,196.8132,196.5823,44.53987,44.50624
793407.5,196.4551,198.3636,44.4877,44.76464
793424.3,196.1322,199.8477,44.44059,44.97817
793442.1,195.5632,201.2676,44.35738,45.181
793459.1,194.9929,202.8882,44.27374,45.41074
793474.8,194.2772,205.5062,44.16843,45.77795
793490.2,193.7876,207.7616,44.09618,46.09048
793507.7,193.2274,209.6068,44.01329,46.34355
793524.7,192.6646,211.0152,43.92978,46.53516
793541.5,191.758,213.1365,43.79475,46.82122
793559.1,190.9294,214.8519,43.67082,47.05034
793574.6,190.0428,216.6845,43.53765,47.29296
793591.6,189.3241,217.8047,43.42924,47.44017
793608.8,188.6893,218.5885,43.33319,47.54269
793624.3,188.064,219.2993,43.23826,47.63533
793641.4,187.5147,220.2065,43.15463,47.75306
793659.5,186.9686,221.2213,43.07125,47.88414
793675.6,186.1688,222.4091,42.94874,48.03673
793690.8,185.2848,223.4606,42.81276,48.17107
793709.3,184.4536,224.2746,42.68436,48.27457
793724.8,183.6284,225.1656,42.55634,48.38739
793741.4,182.9563,226.2955,42.45171,48.52975
793760.1,182.4311,227.6041,42.36968,48.69362
793775.1,181.9506,228.9227,42.29445,48.85768
793790.8,181.2258,229.8781,42.18063,48.97587
793808,180.1562,230.5447,42.01193,49.05801
793827.1,179.1222,231.2157,41.84797,49.14041
793844.2,178.2035,231.9349,41.7016,49.22845
793859.9,177.4872,232.9142,41.58701,49.3478
793877.9,176.818,234.0187,41.47958,49.48173
793894.4,176.3513,235.07,41.40445,49.60851
793910.1,175.8169,235.8718,41.3182,49.70478
793927.3,175.1522,236.7415,41.21061,49.80877
793943.9,174.6189,237.3907,41.12403,49.88609
793958.4,174.1143,238.3813,41.04191,50.00361
793975.8,173.6061,239.4997,40.95898,50.13562
793992.6,173.1232,240.683,40.87999,50.27448
794010.2,172.6913,241.4593,40.80918,50.36515
794025.2,172.4244,242.4149,40.76535,50.47629
794045.6,172.4682,243.2762,40.77255,50.57601
794059.9,172.6165,244.3189,40.79691,50.69616
794075.6,173.2098,245.3485,40.89417,50.81422
794092.4,173.7943,246.3893,40.98971,50.93295
794111,174.4592,247.0833,41.09806,51.01178
794127.9,175.42,247.3132,41.254,51.03783
794144.8,176.3613,247.7634,41.40606,51.08878
794163.4,177.3508,248.2044,41.56514,51.13857
794179.6,178.3878,248.7287,41.73101,51.19762
794193.4,179.2685,249.3835,41.87123,51.27117
794210.8,179.9649,250.1648,41.98166,51.35861
794228.8,180.675,250.9617,42.09388,51.44746
794250.4,181.1934,251.4891,42.17554,51.50606
794263.7,181.7968,251.987,42.27033,51.56126
794278.1,182.3813,252.4682,42.36189,51.61448
794294.6,182.9559,252.9193,42.45164,51.66425
794311.8,183.4349,253.236,42.52625,51.69913
794326.8,183.9702,253.6353,42.60943,51.74302
794343.5,184.4717,253.8698,42.68716,51.76876
794359.2,185.089,254.2316,42.78255,51.80842
794377.7,185.6031,254.6694,42.8618,51.85632
794393.9,185.7908,254.8437,42.89067,51.87537
794410.8,185.8201,255.0155,42.89517,51.89412
794427.1,185.7406,255.0864,42.88295,51.90185
794442.1,185.7126,255.1294,42.87865,51.90653
794469.9,185.7453,255.0136,42.88367,51.89391
794481,185.7682,255.0715,42.8872,51.90022
794494.6,185.779,255.2443,42.88885,51.91906
794511.4,185.8007,255.5833,42.89219,51.95597
794526.6,185.8812,256.0411,42.90458,52.00573
794544.7,186.0174,256.5457,42.9255,52.06044
794560.9,186.3506,256.9681,42.97663,52.10614
794578.6,186.5977,257.0287,43.0145,52.11269
794595,186.7376,257.0334,43.03593,52.11319
794610.4,186.7164,257.1391,43.03267,52.12461
794627.6,186.7635,257.2455,43.03988,52.1361
794644.3,186.7604,257.4734,43.03941,52.16068
794660.1,186.7045,257.7021,43.03085,52.18532
794677.4,186.6235,258.0385,43.01845,52.22152
794695.7,186.6038,258.2878,43.01544,52.2483
794709.8,186.4729,258.6586,42.99538,52.28809
794727.6,186.0865,259.051,42.93612,52.3301
794744.5,185.7142,259.1763,42.87889,52.34351
794759.4,185.2282,259.5597,42.80404,52.38447
794775.8,184.4959,259.7262,42.6909,52.40223
794792.7,183.519,259.832,42.53933,52.41351
794810.1,182.8127,260.0447,42.4293,52.43616
794826.8,182.1039,260.2551,42.31847,52.45856
794842.3,181.575,260.3073,42.23553,52.46411
794858.6,181.2014,260.5737,42.1768,52.49242
794875.6,180.9469,260.7869,42.13673,52.51506
794893.1,180.7097,260.8372,42.09934,52.52039
794908.9,180.4088,260.8643,42.05185,52.52327
794926,180.1434,260.802,42.00991,52.51665
794944.8,179.9956,260.899,41.98652,52.52695
794961,179.949,261.0314,41.97915,52.54097
794979.3,179.9722,261.1702,41.98281,52.55568
794994.3,180.1019,261.5015,42.00334,52.59073
795010.8,180.2645,261.704,42.02904,52.61213
795028.6,180.4782,261.855,42.06281,52.62808
795044.1,180.8614,262.1041,42.12326,52.65436
795061.3,181.2269,262.1349,42.18081,52.6576
795079.1,181.6476,262.1729,42.24692,52.6616
795095.1,182.2373,262.0894,42.33936,52.65281
795113.5,182.7782,262.2155,42.42391,52.6661
795128.3,183.4898,262.3351,42.53479,52.67869
795144.1,184.4066,262.5609,42.67707,52.70246
795161.9,185.6046,262.7714,42.86203,52.72459
795192.4,186.6818,263.2202,43.02738,52.77169
795204.6,187.5072,263.3681,43.15349,52.7872
795220.3,188.5909,263.5706,43.31827,52.80841
795230.9,189.6124,263.7437,43.47277,52.82652
795244.1,191.0264,263.9456,43.68536,52.84763
795261.8,192.6598,264.1642,43.92906,52.87046
795278,194.366,264.4881,44.18152,52.90424
795295.1,196.3005,264.6433,44.46515,52.92041
795311.9,199.168,264.7819,44.88057,52.93484
795330.1,202.1563,264.9592,45.30721,52.95328
795347.2,205.6814,265.0066,45.80235,52.95821
795373.4,209.8154,265.1047,46.37202,52.96841
795394.5,214.0476,265.2253,46.94315,52.98094
795408.4,216.5493,265.3212,47.27514,52.99089
795420.7,219.3336,265.5878,47.63978,53.01854
795432.6,222.0098,265.7556,47.98554,53.03593
795444.8,225.5795,266.1176,48.43962,53.07339
795464.8,228.901,266.5504,48.85499,53.11811
795479.6,232.3092,267.1072,49.27413,53.17549
795494.2,236.9021,267.6548,49.82792,53.23177
795510.9,241.0174,268.0516,50.31359,53.27246
795527.9,245.8122,268.634,50.86718,53.33204
795546.2,250.5231,269.3237,51.3986,53.40239
795564,254.2184,269.9077,51.80698,53.46178
795579.4,258.426,270.511,52.26314,53.52295
795597.5,262.6222,270.9883,52.7089,53.57122
795614.3,266.298,271.4333,53.09205,53.61612
795634.1,269.2505,271.8357,53.39494,53.65665
795647.7,271.8318,272.0151,53.65626,53.67469
795663.3,273.9785,272.4969,53.87115,53.72307
795679.6,276.122,272.8362,54.08353,53.75708
795695.9,278.3193,273.2596,54.29901,53.79942
795712.9,280.196,273.6823,54.48128,53.84162
795730.2,281.9973,273.7465,54.65471,53.84803
795746.3,284.0612,273.6146,54.85164,53.83487
795764.6,285.9055,273.4128,55.02599,53.81474
795780.4,288.0039,273.1451,55.22253,53.78798
795797.7,290.0571,272.8292,55.41298,53.75637
795812.6,292.3237,272.7227,55.62112,53.7457
795831.1,294.3022,272.7484,55.80101,53.74828
795846.7,296.6449,272.8338,56.01189,53.75683
795863.8,298.8241,272.8288,56.206,53.75633
795881.3,301.0489,272.8519,56.40216,53.75864
795897.3,303.0714,272.9382,56.57877,53.76728
795914.4,304.9355,273.1704,56.74007,53.79051
795930.9,307.1366,273.1377,56.92879,53.78724
795949.2,309.4278,272.942,57.12322,53.76766
795965.2,311.6215,272.606,57.30748,53.73401
795980.8,313.8006,272.322,57.4887,53.70552
795997.4,315.9299,272.2286,57.66407,53.69614
796014.4,318.6977,272.1236,57.88951,53.68559
796035.1,321.2771,272.1306,58.0971,53.68629
796048.1,323.8342,272.2498,58.30053,53.69827
796062.4,326.5896,272.5951,58.51714,53.73292
796079.3,329.438,272.8894,58.7383,53.7624
796096.4,332.9447,273.3154,59.00675,53.805
796113.3,336.1536,273.6638,59.24879,53.83978
796129.6,339.4164,273.9692,59.49142,53.87022
796145.8,342.4996,274.3289,59.71754,53.90601
796161.9,345.2962,274.6984,59.92002,53.94272
796179.3,348.0386,275.1032,60.11622,53.98285
796197.6,350.7981,275.528,60.31131,54.02488
796211.5,353.3501,275.8871,60.48967,54.06036
796227.3,356.3359,276.3922,60.69589,54.11015
796247.7,358.5088,276.5368,60.84432,54.12438
796261.4,360.6487,276.6815,60.98917,54.13861
796277.4,362.8788,276.6808,61.13872,54.13855
796294,365.2122,277.0164,61.29371,54.17151
796310.9,367.4359,277.1626,61.43999,54.18586
796328,369.4719,277.4966,61.57273,54.21859
796344.9,371.5743,277.4717,61.70863,54.21616
796361.6,373.7055,277.2496,61.84517,54.19439
796378.1,376.0621,277.0524,61.99475,54.17505
796394.7,378.4884,277.0976,62.14723,54.17948
796414.7,380.6169,277.3377,62.27974,54.20303
796431.3,382.6551,277.433,62.40556,54.21236
796448.6,384.8508,277.4668,62.53991,54.21567
796461.1,387.1297,277.4297,62.67809,54.21204
796477.8,389.3355,277.4088,62.81062,54.20999
796493.7,391.5977,277.4866,62.94531,54.21761
796510.4,394.2532,277.5289,63.10186,54.22175
796528.8,396.9454,277.7931,63.25886,54.24761
796544.9,399.9356,277.872,63.43126,54.25533
796561.1,402.4537,277.9559,63.57485,54.26353
796578.2,404.2045,277.7641,63.67384,54.24477
796595.1,405.8824,277.7153,63.76806,54.24
796611.4,407.651,277.7539,63.86671,54.24378
796630.3,409.3133,277.9222,63.95879,54.26024
796646.5,410.5031,278.0021,64.02433,54.26804
796661.8,411.3285,278.3538,64.06962,54.30237
796679.3,412.1884,278.381,64.11664,54.30503
796696.9,412.5732,278.368,64.13763,54.30376
796711.1,412.8359,278.662,64.15195,54.33242
796731.1,412.902,279.0057,64.15555,54.36587
796745.3,412.6596,279.3694,64.14234,54.4012
796761.8,412.018,279.2263,64.10734,54.3873
796778,411.4717,279.039,64.07746,54.36911
796797.1,410.9112,278.6785,64.04674,54.33403
796814.9,410.0588,278.3943,63.99989,54.30632
796832.6,409.3363,278.1111,63.96006,54.27869
796849.9,408.5201,277.61,63.91493,54.22969
796865.5,407.7811,277.2007,63.87393,54.18959
796880,406.9312,276.5867,63.82664,54.12929
796895.5,405.8318,276.1566,63.76523,54.08694
796911.2,404.1377,275.8698,63.67007,54.05865
796929.4,402.7989,275.8478,63.59442,54.05648
796944.9,401.7914,275.6461,63.53722,54.03656
796961.4,401.1745,275.4136,63.50209,54.01358
796982.9,400.8374,275.38,63.48285,54.01026
796996.1,400.306,275.2724,63.45247,53.9996
797015.9,400.0147,275.6448,63.43579,54.03643
797035.1,399.7602,275.6133,63.4212,54.03333
797049.9,399.5139,275.4193,63.40707,54.01414
797063.1,399.3051,274.8835,63.39508,53.96108
797080.1,399.261,274.5449,63.39254,53.92747
797100.9,399.2384,274.4631,63.39125,53.91935
797115.9,399.173,274.536,63.38749,53.92659
797130.3,398.9881,274.8232,63.37685,53.9551
797148.8,398.6531,274.9249,63.35757,53.96518
797162.8,398.1875,274.9897,63.33072,53.9716
797180.8,397.6567,275.0028,63.30006,53.9729
797197.1,397.1039,274.9678,63.26805,53.96943
797212,396.4044,274.6805,63.22744,53.94094
797230.6,395.7932,274.5245,63.19187,53.92545
797248.2,395.0746,274.5918,63.14994,53.93213
797263.4,394.1332,274.7708,63.09482,53.94989
797284.2,393.4464,274.9748,63.05447,53.97013
797297,392.7228,274.7903,63.01185,53.95183
797311.8,391.9964,274.6016,62.96893,53.93311
797330.8,391.4012,274.2899,62.93367,53.90213
797347.3,390.7816,274.1036,62.89687,53.8836
797363.6,390.2295,274.0432,62.864,53.87759
797379.9,389.8991,273.624,62.8443,53.8358
797396.8,389.7211,273.1155,62.83367,53.78502
797412.6,389.4957,272.4413,62.82021,53.71749
797429.3,389.209,271.3722,62.80306,53.60996
797447.1,388.9647,270.4008,62.78843,53.51179
797465.2,388.8776,269.0862,62.78321,53.37819
797484.4,388.8351,267.7402,62.78067,53.24054
797501.3,388.8394,266.5462,62.78092,53.11767
797517.4,388.8935,265.6072,62.78416,53.02056
797531.5,389.0132,264.6759,62.79134,52.9238
797548.1,389.1082,263.8792,62.79703,52.84069
797566.1,389.1017,263.0543,62.79664,52.7543
797590.1,389.1365,261.9866,62.79872,52.64197
797600.9,389.2247,260.8788,62.804,52.5248
797617.9,389.3707,259.8138,62.81273,52.41158
797637.3,389.4393,258.9723,62.81683,52.32169
797658.3,389.3741,258.3858,62.81294,52.25882
797678.7,389.2991,257.8591,62.80845,52.20222
797697.5,389.2202,256.9795,62.80373,52.10737
797717.3,389.2238,256.1554,62.80394,52.01814
797736.4,389.2125,255.4073,62.80327,51.93682
797756,389.2357,254.6121,62.80466,51.85006
797777.4,389.4754,253.685,62.81899,51.74849
797796.3,389.7252,253.0377,62.83392,51.67729
797814.8,390.0309,252.4467,62.85216,51.6121
797834.4,390.6208,251.9445,62.8873,51.55655
797851.8,391.7644,251.2276,62.95519,51.47702
797871.5,393.0568,250.2991,63.03154,51.37361
797894.1,394.0133,249.2673,63.08779,51.25813
797918.4,395.1246,247.9272,63.15286,51.10728
797942.4,396.1144,247.1289,63.21058,51.01695
797958.9,396.6882,246.6435,63.24393,50.96185
797970.4,397.1687,246.0596,63.2718,50.8954
797986.8,397.6817,245.3623,63.3015,50.8158
798008.2,398.338,244.5681,63.3394,50.72479
798027.3,399.0616,243.8245,63.38108,50.63926
798048.6,399.6604,243.2912,63.41548,50.57774
798067.3,400.0917,242.8573,63.4402,50.52756
798085.7,400.5901,242.4461,63.46872,50.4799
798108.1,401.0418,241.8828,63.49451,50.41447
798124.9,401.3405,241.1569,63.51155,50.32988
798143.9,401.4674,240.379,63.51878,50.23889
798165.6,401.2778,239.1172,63.50798,50.09055
798184.4,400.5434,236.978,63.46605,49.83697
798203.7,399.5575,234.5122,63.40957,49.54132
798222.5,397.5662,230.965,63.29482,49.10966
798240.3,395.8761,228.5412,63.1967,48.81032
798261.6,393.9336,226.7224,63.08311,48.58332
798281.6,391.5413,225.9064,62.94197,48.48082
798300.1,389.5722,224.5975,62.82478,48.31552
798318.2,387.7654,224.5192,62.71641,48.30559
798335.3,386.2929,223.8465,62.62751,48.22018
798355.9,385.4715,223.1914,62.57768,48.13674
798376,384.4271,223.0766,62.51408,48.12209
798396.2,383.3744,223.1303,62.4497,48.12894
798414.3,382.645,223.1351,62.40493,48.12956
798434.8,382.0531,222.934,62.36851,48.10388
798451.1,381.2753,222.667,62.3205,48.06974
798470.6,380.7524,221.9948,62.28814,47.98362
798491.8,380.4956,220.873,62.27223,47.83923
798511.1,380.3534,219.6073,62.2634,47.67535
798530.8,380.1244,218.5622,62.24919,47.53926
798549.7,379.8276,217.4579,62.23074,47.39468
798569.2,379.5394,216.2334,62.21281,47.23344
798586,379.3858,214.9425,62.20324,47.06239
798605.9,379.3354,213.9091,62.2001,46.92465
798626.6,379.2017,212.9819,62.19177,46.80047
798645.8,379.0139,212.1717,62.18006,46.69149
798665.4,378.8292,211.4854,62.16853,46.59883
798684.7,378.6309,211.0284,62.15614,46.53694
798702.3,378.4076,210.6528,62.14217,46.48598
798722.1,378.2026,210.1602,62.12935,46.41901
798741.9,378.1528,209.4968,62.12623,46.32853
798765.8,378.1231,208.9476,62.12437,46.25341
798782.6,378.1205,208.4682,62.12421,46.18767
798800.2,378.1544,208.0229,62.12634,46.12645
798818.6,378.1791,207.1946,62.12788,46.01223
798837.7,378.1642,206.1745,62.12694,45.87093
798860.1,378.1792,205.1902,62.12788,45.73388
798878.9,378.2913,204.344,62.1349,45.61552
798898.8,378.4904,203.6917,62.14735,45.52395
798917.9,378.736,203.4359,62.16271,45.48795
798935.9,378.9161,203.1561,62.17395,45.44853
798957.9,378.9929,202.4264,62.17875,45.34546
798973.9,379.0813,201.4305,62.18426,45.20417
798994.6,379.2673,200.3219,62.19586,45.04608
799014.6,379.578,199.1756,62.21521,44.88167
799033.1,379.9494,198.3459,62.23832,44.76208
799053.6,380.2688,197.7634,62.25816,44.67783
799073.4,380.5965,197.2793,62.27848,44.60763
799091.2,380.9568,196.8979,62.3008,44.5522
799112.6,381.3428,196.6259,62.32468,44.5126
799133.1,381.7183,196.2798,62.34786,44.46213
799151.6,382.0279,195.78,62.36695,44.38911
799169.6,382.2728,195.2686,62.38204,44.31419
799187.8,382.3967,194.7513,62.38967,44.23822
799207.7,382.3368,194.5667,62.38598,44.21107
799227.7,382.0862,194.5031,62.37055,44.20171
799247.7,381.8821,194.3127,62.35797,44.17366
799267,381.7258,193.7131,62.34832,44.08517
799285.4,381.4922,192.8859,62.3339,43.96264
799302.6,381.1625,192.3198,62.31353,43.87849
799321.1,380.7399,192.0149,62.28737,43.83308
799340.7,380.1899,191.9337,62.25326,43.82098
799363.4,379.4633,191.9377,62.20807,43.82157
799384.5,378.633,191.9022,62.15627,43.81628
799404,377.9656,191.785,62.11451,43.79879
799421,377.3597,191.8046,62.07649,43.80171
799439.1,376.3815,192.0173,62.01491,43.83345
799462.2,374.9262,192.2541,61.92283,43.86871
799482.5,373.2018,192.4158,61.813,43.89279
799499.4,371.2263,192.4111,61.68621,43.89208
799520.1,369.1184,192.5766,61.54977,43.9167
799537.8,367.3198,192.8815,61.43238,43.96199
799556.8,365.6493,193.2879,61.32257,44.02225
799573.1,363.6896,193.5959,61.19275,44.06784
799597.1,362.3737,193.7767,61.10497,44.09457
799616.2,361.4116,193.6491,61.04049,44.07571
799637.8,360.4664,193.4434,60.97688,44.04528
799653.8,359.5042,193.4591,60.91186,44.04759
799670.6,358.4349,193.2828,60.8393,44.0215
799689.3,357.2858,193.1767,60.76094,44.00578
