Time Stamp(ms),Intersection,,Angle,
,x,y,x,y
1892565,297.8477,245.3431,56.11927,50.8136
1892579,297.9714,245.268,56.13028,50.805
1892595,298.6194,244.542,56.18784,50.72179
1892613,299.1971,243.9929,56.23903,50.65866
1892630,299.6393,243.8565,56.27811,50.64296
1892646,299.7336,243.9071,56.28643,50.64878
1892662,299.501,243.7903,56.2659,50.63533
1892679,298.8574,243.4176,56.20895,50.59234
1892698,298.2292,242.8569,56.1532,50.52751
1892719,297.8975,242.3497,56.1237,50.46872
1892731,297.5984,242.4405,56.09705,50.47926
1892747,297.2186,242.5191,56.06318,50.48837
1892764,296.4907,243.0569,55.99807,50.55065
1892781,295.7476,243.1077,55.93139,50.55653
1892799,294.8715,243.1098,55.85247,50.55677
1892813,294.3114,242.7912,55.80184,50.51991
1892830,293.7824,243.0367,55.75391,50.54832
1892847,293.0804,243.7783,55.69012,50.63395
1892864,292.183,244.7751,55.60826,50.74854
1892883,291.282,245.5809,55.52574,50.84078
1892899,290.2141,246.7702,55.42747,50.97625
1892915,288.8917,248.1602,55.30511,51.13358
1892932,287.2471,249.5926,55.15187,51.29461
1892948,285.6662,250.8906,55.00344,51.43954
1892963,284.1203,252.287,54.85724,51.59445
1892979,282.4986,254.2819,54.70272,51.81393
1892999,281.0714,256.1712,54.56575,52.01984
1893012,279.513,258.4824,54.41513,52.26919
1893029,277.8878,261.033,54.25687,52.54115
1893049,276.2741,263.3101,54.09851,52.78112
1893065,274.8268,265.2559,53.95546,52.98411
1893079,273.2551,267.8231,53.79898,53.24903
1893099,271.9213,269.8772,53.66526,53.45868
1893112,270.4821,271.7501,53.52002,53.64803
1893130,269.1568,273.1969,53.38539,53.79316
1893146,267.9687,274.63,53.26397,53.93592
1893162,266.9508,276.0174,53.15939,54.07322
1893179,266.0656,277.1149,53.06802,54.18118
1893195,264.9418,277.9524,52.95148,54.26318
1893215,264.0716,278.2392,52.86079,54.29119
1893229,263.1265,278.319,52.76187,54.29898
1893258,262.0318,279.0245,52.64674,54.36769
1893272,261.4115,279.4609,52.58122,54.41008
1893283,260.6496,279.7247,52.50048,54.43567
1893298,259.8222,279.7232,52.41246,54.43552
1893315,258.9207,279.8727,52.31617,54.45
1893332,258.1005,279.8917,52.22819,54.45184
1893348,257.2148,280.2745,52.13278,54.48888
1893363,256.35,280.4963,52.03924,54.5103
1893380,255.2768,280.6632,51.9226,54.52641
1893397,254.3672,280.8525,51.82327,54.54466
1893413,253.56,280.9744,51.73476,54.55641
1893430,252.8971,281.1425,51.6618,54.57259
1893446,252.2478,281.2354,51.59012,54.58154
1893463,251.3936,281.6494,51.49547,54.62134
1893485,250.6857,281.664,51.41673,54.62274
1893502,250.0911,281.7703,51.35038,54.63294
1893518,249.5832,281.6823,51.29355,54.6245
1893535,249.0703,281.9363,51.23602,54.64887
1893550,248.5866,282.0878,51.18164,54.66339
1893564,248.0914,282.1921,51.12582,54.67339
1893582,247.6095,282.3605,51.07138,54.68951
1893598,247.1559,282.444,51.02001,54.6975
1893615,246.6544,282.4701,50.96309,54.7
1893635,246.0788,282.7485,50.89758,54.72661
1893650,245.5179,282.9525,50.83358,54.7461
1893666,244.9752,282.9099,50.77148,54.74202
1893685,244.3597,282.9127,50.70085,54.74229
1893702,243.9123,283.0247,50.64938,54.75298
1893715,243.4997,282.9058,50.60181,54.74163
1893734,242.8825,283.0257,50.53047,54.75307
1893753,242.3706,282.8147,50.47114,54.73293
1893768,241.8089,282.6162,50.40587,54.71397
1893781,241.2319,282.5151,50.33863,54.7043
1893798,240.6547,282.5787,50.27118,54.71038
1893819,240.1145,282.6724,50.20787,54.71934
1893836,239.536,283.0626,50.13988,54.75659
1893851,238.9704,283.3269,50.07324,54.78179
1893866,238.5898,283.3078,50.02828,54.77998
1893881,238.1184,283.6349,49.97249,54.81112
1893898,237.7061,283.7086,49.92358,54.81813
1893915,237.1484,283.7066,49.85727,54.81794
1893932,236.5399,283.6317,49.7847,54.81081
1893954,236.0029,283.4134,49.72048,54.79004
1893970,235.4934,283.2583,49.6594,54.77525
1893986,234.9797,282.961,49.59765,54.7469
1894003,234.1734,282.6133,49.50042,54.71369
1894020,233.273,282.2772,49.39138,54.68153
1894039,232.453,282.2585,49.29166,54.67974
1894051,231.6098,282.1152,49.18869,54.66602
1894069,230.8643,281.9616,49.09729,54.6513
1894085,229.9916,281.7736,48.98988,54.63326
1894103,228.885,281.2916,48.853,54.58694
1894127,227.8597,280.832,48.7255,54.54269
1894138,227.1657,280.5532,48.63884,54.51579
1894154,226.1171,280.1552,48.50732,54.47734
1894171,225.1641,279.6072,48.3872,54.42427
1894187,224.1881,278.9549,48.2636,54.36092
1894205,223.2266,278.2953,48.14123,54.29667
1894223,222.3005,277.7856,48.02283,54.24688
1894239,221.2108,277.4792,47.88279,54.21688
1894252,219.989,277.4573,47.72488,54.21475
1894269,218.7999,277.2915,47.57028,54.1985
1894285,217.5047,277.037,47.40083,54.17354
1894302,216.2676,276.6247,47.23796,54.13303
1894321,215.0554,275.9889,47.07739,54.0704
1894335,213.8768,275.3963,46.92034,54.01186
1894351,212.7395,274.6841,46.76792,53.94129
1894368,211.6183,274.0832,46.6168,53.88157
1894384,210.3236,273.5575,46.44124,53.82917
1894403,209.4252,272.8967,46.31874,53.76313
1894420,208.4481,272.3237,46.18491,53.70569
1894434,207.4313,271.8164,46.04492,53.65471
1894451,206.4601,271.0401,45.91055,53.57645
1894467,205.3736,270.2324,45.75946,53.49472
1894485,204.3485,269.7112,45.61616,53.44181
1894501,203.2474,269.3597,45.4614,53.40606
1894519,202.4345,268.9124,45.3466,53.36047
1894535,201.4819,268.4772,45.21148,53.31602
1894552,200.8035,267.7672,45.11486,53.24331
1894569,200.2728,267.3132,45.03904,53.19667
1894588,200.1817,266.765,45.02602,53.14024
1894605,199.8169,266.3435,44.97376,53.09675
1894621,199.3893,266.1365,44.91239,53.07535
1894636,199.1157,265.7868,44.87305,53.03917
1894652,198.9028,265.3728,44.84241,52.99625
1894672,198.8227,265.022,44.83087,52.95981
1894688,198.7816,264.6322,44.82494,52.91925
1894704,198.7076,264.2243,44.81428,52.87673
1894719,198.6934,263.6632,44.81223,52.8181
1894735,198.656,263.7303,44.80684,52.82512
1894753,198.8511,263.4644,44.83495,52.79729
1894769,198.987,263.1701,44.85453,52.76645
1894786,199.0023,262.9964,44.85674,52.74822
1894802,198.8549,262.7171,44.8355,52.71888
1894819,198.7153,262.4917,44.81538,52.69518
1894844,198.5291,262.485,44.78853,52.69448
1894854,198.3865,262.5399,44.76795,52.70024
1894868,198.2245,262.4613,44.74454,52.69198
1894885,197.9395,262.4678,44.70333,52.69266
1894903,197.6786,262.5106,44.66555,52.69717
1894919,197.3627,262.6126,44.61974,52.7079
1894935,197.0029,262.7368,44.56746,52.72095
1894952,196.6936,263.0095,44.52246,52.74959
1894968,196.4263,263.2936,44.4835,52.7794
1894987,196.0862,263.2536,44.43387,52.7752
1895007,195.3599,263.1127,44.32759,52.76043
1895024,194.7084,263.1234,44.23192,52.76154
1895036,194.0973,263.1149,44.1419,52.76066
1895057,193.5281,263.0862,44.0578,52.75764
1895069,193.0215,263.0876,43.98277,52.7578
1895087,192.5462,263.1986,43.91217,52.76944
1895103,192.0681,263.2858,43.84101,52.77858
1895120,191.6452,263.1405,43.77793,52.76334
1895140,191.4375,263.0713,43.74688,52.75608
1895153,191.3495,262.9429,43.73372,52.7426
1895170,191.2332,262.7637,43.71633,52.72378
1895187,191.0475,262.4938,43.68853,52.6954
1895204,190.8246,262.4855,43.65511,52.69452
1895223,190.7579,262.549,43.64511,52.70121
1895240,190.9879,262.4857,43.67959,52.69455
1895256,191.1501,262.3827,43.70388,52.6837
1895269,191.3159,262.2725,43.7287,52.6721
1895287,191.5436,261.8729,43.76274,52.62997
1895304,191.7749,261.5618,43.79728,52.59711
1895320,192.0879,261.4283,43.84396,52.58299
1895337,192.7104,261.0494,43.93658,52.54288
1895354,193.2211,260.7911,44.01236,52.5155
1895370,193.7413,260.3162,44.08933,52.46506
1895387,194.2948,259.7816,44.17102,52.40814
1895404,194.9165,259.3987,44.26252,52.36728
1895421,195.7125,259.0266,44.37923,52.3275
1895443,196.1526,258.995,44.44357,52.32411
1895456,196.7738,258.9002,44.53413,52.31397
1895475,197.2646,258.89,44.60549,52.31288
1895488,197.742,258.7964,44.67473,52.30285
1895505,198.231,258.7062,44.74548,52.29319
1895522,198.6311,258.7375,44.80324,52.29655
1895538,199.0476,258.6847,44.86326,52.29088
1895555,199.516,258.5717,44.93059,52.27877
1895571,199.9981,258.3335,44.99973,52.25321
1895594,200.454,258.1457,45.06496,52.23304
1895605,200.8685,258.0128,45.12413,52.21876
1895621,201.2622,258.0748,45.18023,52.22542
1895640,201.6828,258.1659,45.24003,52.23521
1895659,202.1858,258.2848,45.31139,52.24798
1895675,202.7852,258.3965,45.39619,52.25998
1895693,203.2663,258.6594,45.46406,52.28818
1895710,203.79,258.727,45.53777,52.29542
1895725,204.5089,258.8022,45.63863,52.30347
1895744,205.132,258.9601,45.72575,52.32038
1895760,205.771,259.1746,45.81483,52.34333
1895775,206.375,259.4368,45.89875,52.37135
1895794,206.9892,259.602,45.98384,52.38898
1895811,207.5022,259.6317,46.0547,52.39215
1895826,208.0562,259.7295,46.13103,52.40258
1895844,208.6981,259.591,46.21922,52.38781
1895861,209.2456,259.6308,46.2942,52.39205
1895881,209.8204,259.6879,46.37269,52.39814
1895898,210.2732,259.6815,46.43438,52.39746
1895910,210.7537,259.8361,46.49969,52.41395
1895926,211.3259,259.8969,46.57725,52.42042
1895942,211.771,260.0896,46.63743,52.44095
1895958,212.1553,260.2541,46.68928,52.45845
1895974,212.5997,260.5583,46.74912,52.49078
1895992,212.8736,261.1211,46.78594,52.55048
1896008,213.4917,260.5268,46.86882,52.48744
1896026,213.955,260.7856,46.9308,52.51491
1896046,214.2266,260.9566,46.96705,52.53305
1896060,214.5847,260.9987,47.01478,52.53751
1896078,214.904,261.261,47.05726,52.5653
1896093,215.1848,261.647,47.09457,52.60611
1896108,215.5384,261.9026,47.14148,52.63311
1896124,215.8951,262.0732,47.18872,52.6511
1896144,216.2128,262.3673,47.23072,52.68209
1896161,216.5683,262.2927,47.27765,52.67423
1896178,216.9013,262.3123,47.32152,52.6763
1896193,217.2575,262.5663,47.36836,52.70302
1896210,217.6105,262.613,47.41471,52.70794
1896228,217.9777,262.5694,47.46284,52.70335
1896243,218.387,262.3756,47.51638,52.68296
1896260,218.7818,262.2516,47.56792,52.6699
1896277,219.3089,262.2252,47.63657,52.66712
1896301,219.7427,262.2704,47.69293,52.67188
1896312,220.1653,262.2014,47.74773,52.66461
1896326,220.6113,262.2461,47.80543,52.66932
1896345,220.9402,262.5392,47.8479,52.70018
1896360,221.3226,262.8008,47.89719,52.72768
1896379,221.7458,263.317,47.95163,52.78185
1896397,222.1286,263.4827,48.00079,52.79921
1896410,222.4887,263.5855,48.04692,52.80997
1896427,222.8007,263.707,48.08684,52.82268
1896445,223.112,263.8815,48.12661,52.84093
1896463,223.4219,263.9034,48.16613,52.84322
1896480,223.6549,264.0698,48.1958,52.8606
1896495,223.884,264.0195,48.22496,52.85535
1896512,224.0865,264.0652,48.25068,52.86012
1896528,224.2827,263.9997,48.2756,52.85328
1896544,224.5279,263.7694,48.3067,52.82922
1896562,224.6979,263.7528,48.32823,52.82747
1896579,224.7732,263.7188,48.33776,52.82392
1896596,224.9008,263.7173,48.35392,52.82376
1896612,225.0495,263.7304,48.37272,52.82513
1896627,225.0631,263.981,48.37444,52.85133
1896644,225.1426,264.1969,48.38448,52.87387
1896663,225.157,264.7014,48.3863,52.92646
1896681,225.2912,264.8592,48.40326,52.94288
1896696,225.3999,265.0322,48.41698,52.96087
1896712,225.5797,264.8533,48.43966,52.94227
1896730,225.6887,264.915,48.4534,52.94868
1896746,225.7499,265.0106,48.4611,52.95863
1896770,225.9197,264.9531,48.48249,52.95265
1896788,226.0087,265.0574,48.49369,52.96349
1896801,226.0458,265.0999,48.49836,52.9679
1896813,226.0998,265.2179,48.50514,52.98017
1896840,226.1672,265.3253,48.51363,52.99132
1896852,226.2235,265.2514,48.5207,52.98364
1896863,226.2631,265.2916,48.52568,52.98782
1896879,226.2755,265.3543,48.52723,52.99432
1896895,226.3046,265.4521,48.53088,53.00448
1896915,226.1189,265.1799,48.50755,52.97622
1896928,226.0649,265.1704,48.50076,52.97524
1896945,225.9552,265.2895,48.48696,52.9876
1896965,225.8189,265.3322,48.4698,52.99203
1896979,225.7425,265.2499,48.46017,52.98349
1896994,225.6527,265.2458,48.44886,52.98307
1897011,225.5859,265.2411,48.44044,52.98257
1897028,225.5429,265.1494,48.43502,52.97305
1897047,225.4248,265.2104,48.42011,52.97939
1897062,225.3476,265.1237,48.41037,52.97038
1897078,225.2986,265.1642,48.40419,52.97459
1897096,225.231,265.3828,48.39565,52.99729
1897115,225.1801,265.3353,48.38923,52.99235
1897130,225.1598,265.2773,48.38666,52.98633
1897149,225.1855,265.1451,48.3899,52.9726
1897164,225.2242,265.115,48.39479,52.96947
1897183,225.2871,265.0732,48.40274,52.96513
1897206,225.3456,265.1007,48.41013,52.96799
1897216,225.5167,264.8528,48.43171,52.94221
1897230,225.6408,264.9657,48.44736,52.95396
1897246,225.873,264.9275,48.47661,52.94998
1897265,226.2261,264.7906,48.52102,52.93575
1897284,226.6014,264.5454,48.56815,52.91022
1897299,226.8564,264.2932,48.60011,52.88393
1897317,227.1239,264.1761,48.6336,52.87171
1897331,227.5321,263.8537,48.68463,52.83802
1897350,227.7785,263.9198,48.71538,52.84493
1897365,228.1669,263.9875,48.76377,52.85201
1897385,228.4682,263.9636,48.80125,52.84951
1897401,228.738,263.8943,48.83475,52.84227
1897420,229.007,263.754,48.86812,52.8276
1897432,229.1918,263.8364,48.89102,52.83622
1897450,229.4422,263.6824,48.92202,52.82011
1897466,229.5743,263.6934,48.93835,52.82126
1897483,229.7466,263.5649,48.95963,52.80782
1897499,229.8684,263.5834,48.97467,52.80975
1897515,230.056,263.4295,48.99782,52.79364
1897533,230.2146,263.3572,49.01737,52.78606
1897550,230.4212,263.054,49.04281,52.75426
1897567,230.5868,263.0036,49.06319,52.74898
1897584,230.7654,262.9038,49.08514,52.7385
1897600,230.9103,262.881,49.10295,52.7361
1897616,231.1485,262.6779,49.13218,52.71476
1897633,231.3959,262.516,49.1625,52.69773
1897649,231.6395,262.4504,49.19233,52.69083
1897666,231.9022,262.2764,49.22445,52.67251
1897683,232.1377,262.1754,49.2532,52.66188
1897700,232.3964,262.1391,49.28476,52.65804
1897716,232.5962,262.0398,49.30911,52.64758
1897732,232.865,261.8987,49.34182,52.63269
1897750,233.1186,261.8196,49.37263,52.62434
1897764,233.4382,261.8077,49.41142,52.62309
1897783,233.7495,261.7962,49.44915,52.62187
1897801,233.9578,261.8015,49.47436,52.62244
1897815,234.2006,261.7982,49.5037,52.62209
1897831,234.4815,261.8404,49.53762,52.62653
1897849,234.6898,262.0776,49.56273,52.65156
1897867,234.9756,261.9201,49.59716,52.63495
1897884,235.2217,261.8729,49.62676,52.62997
1897899,235.4577,261.9358,49.65511,52.6366
1897915,235.79,261.8878,49.69498,52.63153
1897932,236.2128,261.8415,49.74561,52.62665
1897950,236.606,261.7116,49.79259,52.61294
1897965,237.0082,261.6004,49.84056,52.60119
1897981,237.4574,261.6863,49.89402,52.61027
1898000,237.9061,261.5208,49.94731,52.59277
1898015,238.6067,261.2987,50.03028,52.56928
1898033,239.2599,261.2962,50.10738,52.56902
1898054,240.0715,261.0066,50.20283,52.53835
1898066,240.9495,261.0641,50.30565,52.54444
1898083,242.0983,260.8112,50.43953,52.51762
1898104,243.1212,260.7391,50.55809,52.50998
1898121,244.4561,260.3914,50.71193,52.47305
1898140,246.0476,260.1947,50.89403,52.45213
1898150,247.5525,260.0503,51.06493,52.43676
1898166,249.0955,260.008,51.23885,52.43225
1898183,250.5959,259.8661,51.40672,52.41714
1898199,252.3056,259.7266,51.5965,52.40228
1898216,253.8335,259.6237,51.76478,52.3913
1898234,255.5748,259.6482,51.95505,52.39391
1898252,257.0183,259.6968,52.11156,52.3991
1898268,258.6098,259.5225,52.28285,52.38049
1898284,260.2161,259.5136,52.45441,52.37955
1898300,261.6413,259.5588,52.60551,52.38437
1898317,263.0142,259.3775,52.75008,52.36501
1898333,264.5326,259.0468,52.90888,52.32965
1898350,265.8228,258.9158,53.0429,52.31564
1898366,267.3562,258.6004,53.2011,52.28185
1898384,268.7259,258.5948,53.34143,52.28125
1898401,270.1334,258.5493,53.48468,52.27637
1898419,271.4681,258.2275,53.61964,52.24183
1898435,272.7922,258.2568,53.75267,52.24498
1898451,274.164,258.0251,53.88961,52.22008
1898468,275.5965,257.6686,54.03166,52.18172
1898486,276.9135,257.2904,54.16141,52.14095
1898503,278.131,257.1005,54.28063,52.12045
1898519,279.2773,256.6875,54.39226,52.07579
1898537,280.4415,256.4335,54.505,52.04829
1898553,281.5629,256.1554,54.61303,52.01814
1898569,282.6451,255.9135,54.71673,51.99187
1898586,283.6971,255.809,54.81704,51.98052
1898602,284.6514,255.6755,54.90759,51.96601
1898618,285.5161,255.5937,54.9893,51.95711
1898635,286.4507,255.5143,55.07724,51.94847
1898653,287.3397,255.3443,55.16053,51.92995
1898670,288.2259,255.0074,55.24321,51.89323
1898687,289.0258,254.6534,55.31755,51.85457
1898704,289.7757,254.5382,55.38699,51.84198
1898721,290.5107,254.2497,55.45481,51.81041
1898737,291.1858,254.0102,55.51691,51.78417
1898755,291.8978,253.8488,55.58218,51.76646
1898770,292.5547,253.7081,55.64221,51.75102
1898787,293.347,253.2893,55.71436,51.70499
1898809,294.067,252.7609,55.77971,51.64679
1898822,294.6321,252.4158,55.83084,51.60868
1898838,295.348,252.0432,55.89542,51.56748
1898854,295.9835,251.9111,55.95258,51.55286
1898870,296.6954,251.548,56.01641,51.5126
1898891,297.2418,251.4156,56.06525,51.49791
1898906,297.8454,251.2059,56.11906,51.47462
1898923,298.3116,250.9787,56.16052,51.44934
1898940,298.7516,250.8808,56.19957,51.43846
1898955,299.1812,250.6457,56.23763,51.41227
1898971,299.6376,250.5633,56.27796,51.40308
1898989,300.0218,250.435,56.31185,51.38877
1899006,300.4685,250.1908,56.35119,51.36151
1899025,300.8124,250.0471,56.38141,51.34546
1899040,301.1219,249.9713,56.40857,51.33698
1899055,301.4766,249.6013,56.43965,51.29557
1899072,301.7762,249.4073,56.46586,51.27383
1899090,302.0762,249.1946,56.49207,51.24998
1899105,302.2415,249.0669,56.5065,51.23564
1899120,302.5027,248.7503,56.52927,51.20005
1899138,302.6803,248.6171,56.54474,51.18507
1899156,302.8934,248.5348,56.56329,51.1758
1899174,303.165,248.356,56.58689,51.15566
1899191,303.3405,248.3751,56.60213,51.15781
1899205,303.4913,248.4147,56.61522,51.16227
1899222,303.5553,248.4408,56.62077,51.16521
1899238,303.6336,248.4824,56.62756,51.1699
1899255,303.7922,248.2237,56.6413,51.14075
1899271,303.794,248.3953,56.64146,51.16008
1899288,303.8512,248.2946,56.64641,51.14874
1899304,303.8825,248.2835,56.64912,51.14748
1899322,303.9414,248.1633,56.65422,51.13393
1899337,303.9772,247.9216,56.65732,51.10665
1899358,303.9447,247.926,56.65451,51.10714
1899376,303.9533,247.9404,56.65525,51.10878
1899391,303.9522,247.8323,56.65516,51.09656
1899407,303.9438,247.9587,56.65443,51.11084
1899422,303.9561,247.8398,56.65549,51.0974
1899447,303.9426,247.7851,56.65432,51.09123
1899457,303.9081,247.6991,56.65133,51.08151
1899472,303.8336,247.5535,56.64489,51.06504
1899488,303.8048,247.4621,56.64239,51.0547
1899503,303.7538,247.4378,56.63798,51.05194
1899521,303.7131,247.3982,56.63445,51.04746
1899539,303.7086,247.4321,56.63406,51.0513
1899552,303.7939,247.5442,56.64145,51.06399
1899572,303.8004,247.5752,56.64201,51.0675
1899589,303.8189,247.6322,56.64361,51.07395
1899607,303.8125,247.7589,56.64306,51.08827
1899625,303.8234,247.7629,56.644,51.08872
1899639,303.8193,247.8536,56.64365,51.09897
1899657,303.7892,247.8231,56.64104,51.09553
1899673,303.7808,247.887,56.64032,51.10275
1899689,303.7831,247.9576,56.64051,51.11071
1899706,303.7667,248.0641,56.63909,51.12274
1899721,303.7464,248.3086,56.63733,51.15032
1899742,303.7497,248.4009,56.63762,51.16072
1899757,303.7646,248.6096,56.63892,51.18422
1899774,303.7913,248.8288,56.64122,51.20888
1899789,303.8792,248.9688,56.64884,51.22461
1899808,304.0493,249.0632,56.66356,51.23521
1899823,304.2759,249.0147,56.68315,51.22977
1899841,304.459,249.2235,56.69897,51.25322
1899857,304.6994,249.3221,56.71972,51.26428
1899873,305.0521,249.4043,56.75012,51.2735
1899889,305.427,249.5828,56.78238,51.29351
1899906,305.765,249.7408,56.81141,51.31119
1899923,306.14,249.854,56.84358,51.32386
1899940,306.4697,249.9781,56.87181,51.33774
1899959,306.8649,250.0751,56.9056,51.34859
1899976,307.2899,250.4335,56.94186,51.3886
1899993,307.7305,250.4949,56.97939,51.39545
1900009,308.1439,250.5054,57.01452,51.39663
1900026,308.512,250.4662,57.04575,51.39225
1900039,308.9322,250.3906,57.08134,51.38382
1900055,309.3072,250.3584,57.11303,51.38023
1900072,309.6502,250.4348,57.14199,51.38875
1900090,309.9023,250.5191,57.16323,51.39816
1900105,310.2064,250.501,57.18883,51.39613
1900123,310.4903,250.5877,57.2127,51.4058
1900141,310.8665,250.4205,57.24427,51.38715
1900157,311.1822,250.2496,57.27073,51.36808
1900173,311.453,250.2137,57.29339,51.36406
1900189,311.7849,250.1169,57.32113,51.35325
1900206,312.1571,250.0121,57.35219,51.34155
