Time Stamp(ms),Intersection,,Angle,
,x,y,x,y
2027358,312.5645,231.7748,57.38612,49.20887
2027383,312.5376,231.3956,57.38388,49.16246
2027406,312.606,230.8853,57.38958,49.09988
2027431,312.5695,230.2498,57.38654,49.02171
2027455,312.396,229.46,57.37209,48.92422
2027480,312.4988,228.7526,57.38066,48.83657
2027505,312.6737,228.0481,57.39521,48.74898
2027531,312.3469,227.4706,57.36801,48.67695
2027555,311.7352,226.9901,57.31698,48.61686
2027580,311.5368,226.2344,57.3004,48.52207
2027602,311.6051,225.6412,57.30611,48.44741
2027627,311.336,225.0485,57.2836,48.37259
2027651,310.8187,224.4822,57.24026,48.3009
2027677,310.2645,223.994,57.19371,48.23895
2027701,309.6239,223.9515,57.13977,48.23354
2027729,308.4947,224.0872,57.04428,48.25078
2027751,307.2247,223.7452,56.9363,48.20729
2027776,306.005,222.9608,56.83201,48.1073
2027801,304.8961,222.522,56.73669,48.05119
2027826,303.7329,222.5279,56.63617,48.05194
2027849,302.6383,222.467,56.54108,48.04415
2027875,301.535,222.3297,56.44476,48.02657
2027899,300.5565,222.5344,56.35892,48.05278
2027927,299.6087,223.3212,56.27541,48.15329
2027951,298.8221,224.0393,56.20582,48.2447
2027975,297.8027,225.2941,56.11526,48.40363
2028001,296.9902,227.0096,56.04277,48.6193
2028026,296.2414,230.2903,55.97572,49.0267
2028050,295.6327,232.0213,55.92105,49.23899
2028074,294.9942,232.3791,55.86353,49.28265
2028100,294.5457,232.6959,55.82304,49.32124
2028127,294.1323,233.5188,55.78563,49.4212
2028150,293.5394,234.296,55.73185,49.51523
2028175,293.0019,234.8595,55.68297,49.58318
2028201,292.7378,235.605,55.65891,49.67279
2028226,292.5597,236.3034,55.64266,49.75644
2028250,292.2701,236.6721,55.61622,49.80048
2028276,291.9994,236.827,55.59148,49.81896
2028300,291.8195,237.0617,55.575,49.84694
2028326,291.6715,237.5859,55.56145,49.9093
2028350,291.4572,238.2519,55.54181,49.9883
2028372,291.2257,238.7711,55.52057,50.04971
2028399,291.0063,239.3973,55.50041,50.12357
2028419,290.7621,240.2094,55.47796,50.21901
2028447,290.5211,241.2226,55.45578,50.33754
2028471,290.2942,242.0205,55.43486,50.43048
2028497,290.0026,242.598,55.40795,50.49752
2028518,289.7328,243.0641,55.38302,50.55148
2028545,289.448,243.6701,55.35668,50.62148
2028570,289.2032,244.5933,55.334,50.72769
2028595,289.0375,245.4717,55.31864,50.8283
2028619,288.9086,246.1482,55.30668,50.9055
2028644,288.7582,246.7595,55.29272,50.97503
2028669,288.6011,247.4615,55.27812,51.05463
2028694,288.5022,248.3276,55.26892,51.15245
2028719,288.4298,248.6806,55.26219,51.19221
2028744,288.3127,248.889,55.25129,51.21565
2028768,288.2076,249.1503,55.24151,51.245
2028792,288.0621,249.7095,55.22795,51.3077
2028820,287.8836,250.381,55.21132,51.38274
2028844,287.5702,250.9758,55.18207,51.44902
2028867,287.3486,251.581,55.16137,51.51626
2028892,287.1234,252.383,55.1403,51.60507
2028917,286.8162,253.1261,55.11152,51.68703
2028942,286.5548,253.4624,55.08701,51.72403
2028966,286.3198,253.7651,55.06495,51.75728
2028989,286.1092,254.4363,55.04515,51.83083
2029017,285.8875,255.8257,55.02429,51.98234
2029041,285.6125,257.7944,54.99839,52.19526
2029065,285.3873,260.3684,54.97715,52.47061
2029090,285.1996,263.3888,54.95943,52.78938
2029115,285.0551,266.5538,54.94578,53.11846
2029140,284.9818,269.1161,54.93885,53.38124
2029164,284.8655,271.9182,54.92785,53.66495
2029189,284.7164,274.282,54.91375,53.90135
2029214,284.5637,277.3499,54.89929,54.20422
2029242,284.6429,280.5621,54.90678,54.51665
2029266,284.6732,283.8405,54.90966,54.83067
2029289,284.6911,286.2758,54.91135,55.06081
2029316,284.7363,288.2723,54.91563,55.24754
2029341,284.8293,289.5347,54.92443,55.3647
2029364,284.9066,290.9436,54.93175,55.49465
2029387,284.952,291.4718,54.93604,55.54314
2029413,284.995,291.4582,54.9401,55.5419
2029438,284.9755,291.1667,54.93826,55.51515
2029465,284.8978,291.0457,54.93091,55.50403
2029490,284.6851,290.9875,54.91079,55.49868
2029513,284.3466,291.1147,54.87872,55.51037
2029539,283.9994,291.4641,54.84577,55.54244
2029564,283.7484,291.9346,54.82191,55.58555
2029588,283.6827,292.1955,54.81567,55.60941
2029613,283.6569,292.475,54.81321,55.63493
2029638,283.6916,292.8271,54.81651,55.66704
2029662,283.6576,293.5482,54.81327,55.73265
2029688,283.5407,294.2343,54.80215,55.79486
2029711,283.3963,294.719,54.78841,55.83869
2029740,283.2386,294.9685,54.77338,55.86122
2029762,282.9701,295.3206,54.74777,55.89296
2029786,282.6833,295.8914,54.72038,55.94431
2029810,282.2816,296.4339,54.68196,55.99299
2029837,281.8501,296.6991,54.6406,56.01674
2029859,281.4331,296.8367,54.60056,56.02905
2029886,280.9039,297.0434,54.54962,56.04753
2029909,280.3676,297.273,54.49787,56.06804
2029935,279.839,297.4906,54.44674,56.08745
2029959,279.4746,297.8982,54.41141,56.12376
2029984,279.2068,298.5675,54.38541,56.18324
2030008,278.9462,299.3175,54.36007,56.24968
2030034,278.5522,300.1584,54.32171,56.32389
2030058,278.0582,301.2708,54.27352,56.42162
2030083,277.4461,302.7585,54.21365,56.55154
2030106,276.9185,304.7178,54.1619,56.72131
2030133,276.7305,308.4281,54.14342,57.03863
2030160,276.695,311.588,54.13993,57.30468
2030185,276.8605,314.2455,54.1562,57.52549
2030207,277.3069,315.4619,54.2,57.62567
2030232,277.9325,315.6349,54.26124,57.63987
2030256,278.5949,314.8926,54.32588,57.57885
2030281,279.1904,314.4713,54.38381,57.54413
2030307,279.8763,314.2179,54.45034,57.5232
2030333,280.8083,313.8259,54.5404,57.4908
2030358,281.8551,313.2292,54.64108,57.44136
2030379,282.924,312.632,54.74337,57.39174
2030403,284.2257,312.2354,54.86724,57.35872
2030427,285.3908,312.0013,54.97748,57.3392
2030452,286.6267,311.771,55.09375,57.31997
2030477,288.0492,311.5627,55.22675,57.30256
2030504,289.8267,311.2799,55.3917,57.27891
2030528,291.5406,311.0452,55.54946,57.25925
2030555,293.2274,310.6411,55.70349,57.22536
2030577,294.8195,310.3298,55.84777,57.19921
2030605,296.5368,309.8377,56.0022,57.15779
2030627,297.7446,309.3022,56.11008,57.11262
2030653,298.9568,308.4185,56.21776,57.03782
2030676,300.3098,307.6995,56.33722,56.97675
2030703,301.5851,307.2068,56.44915,56.93477
2030726,302.7217,306.7982,56.54834,56.8999
2030751,303.7517,306.2682,56.63779,56.85456
2030775,304.3741,305.3275,56.69164,56.77383
2030803,304.6776,303.6164,56.71784,56.62607
2030827,304.7397,302.4069,56.7232,56.52092
2030853,304.2652,300.9423,56.68223,56.39281
2030881,303.8331,299.4831,56.64484,56.26431
2030904,303.1369,297.2122,56.58445,56.0626
2030926,302.5741,295.1006,56.53549,55.87313
2030953,301.7884,293.0164,56.46693,55.68429
2030976,300.975,291.1464,56.39568,55.51328
2030998,300.3027,288.9788,56.3366,55.31319
2031024,299.668,287.0499,56.28064,55.13342
2031048,299.1082,285.5783,56.23116,54.99517
2031075,298.4743,284.4535,56.17497,54.88885
2031098,297.8744,283.44,56.12164,54.79257
2031124,297.2535,282.145,56.0663,54.66887
2031147,296.678,281.0031,56.01485,54.55917
2031174,296.0919,279.7657,55.96232,54.43964
2031197,295.6399,278.7833,55.9217,54.34423
2031223,295.1411,277.5992,55.87678,54.22864
2031245,294.8088,276.4322,55.8468,54.11408
2031272,294.4195,275.2163,55.81162,53.99406
2031296,294.0369,273.9195,55.77698,53.86526
2031321,293.5568,272.4992,55.73343,53.7233
2031345,293.1304,271.2197,55.69466,53.59459
2031372,292.719,269.7002,55.65719,53.44069
2031396,292.3535,268.2231,55.62384,53.29003
2031423,291.9183,266.5971,55.58405,53.12293
2031446,291.5695,265.3723,55.5521,52.9962
2031470,291.1618,263.9767,55.5147,52.85088
2031496,290.6836,262.7388,55.47073,52.72117
2031520,290.0922,261.3249,55.41623,52.57206
2031548,289.6989,260.3474,55.37988,52.46838
2031568,289.2921,259.1891,55.34223,52.34488
2031593,288.8924,258.027,55.30517,52.22029
2031617,288.5076,256.8058,55.26942,52.08859
2031643,288.0607,255.5886,55.22783,51.95655
2031669,287.6503,254.6103,55.18955,51.84986
2031693,287.166,253.7145,55.14428,51.75172
2031718,286.7838,252.9309,55.10849,51.66552
2031743,286.4087,251.9577,55.07329,51.55801
2031767,286.0679,250.8205,55.04127,51.43174
2031795,285.6274,249.6352,54.99979,51.29938
2031818,284.9836,248.1963,54.93902,51.13765
2031850,284.6204,247.5641,54.90466,51.06624
2031866,284.1241,246.5993,54.8576,50.95683
2031894,283.6175,245.5191,54.80946,50.83372
2031917,283.1831,244.5001,54.76809,50.71699
2031945,283.954,246.1128,54.84146,50.90147
2031967,283.9328,246.2132,54.83944,50.9129
2031993,283.8819,246.3207,54.83461,50.92514
2032017,283.8285,246.3959,54.82952,50.9337
2032043,283.8249,246.5643,54.82919,50.95285
2032065,283.8954,246.8098,54.83588,50.98075
2032091,284.0285,247.1508,54.84853,51.01944
2032116,284.1339,247.4488,54.85854,51.05319
2032140,284.2729,247.5287,54.87172,51.06224
2032165,284.3724,247.6167,54.88116,51.07219
2032191,284.4886,247.7097,54.89218,51.0827
2032217,284.5248,247.6118,54.8956,51.07164
2032241,284.486,247.4299,54.89192,51.05106
2032266,284.4477,247.1944,54.8883,51.02438
2032291,284.3062,247.1655,54.87489,51.02111
2032316,284.1555,247.2276,54.86059,51.02813
2032341,284.036,246.9736,54.84924,50.99934
2032366,283.8781,246.6406,54.83424,50.96152
2032390,283.7258,246.3621,54.81976,50.92986
2032414,283.5208,246.0909,54.80026,50.89896
2032441,283.3255,245.614,54.78166,50.84457
2032469,283.0598,245.0648,54.75633,50.78175
2032487,282.6471,244.4599,54.71692,50.71238
2032514,282.2781,243.6866,54.68162,50.62338
2032537,281.8463,242.9869,54.64024,50.54256
2032563,281.2874,242.1489,54.58654,50.4454
2032588,280.6326,241.512,54.52345,50.3713
2032614,279.9628,241.0554,54.45872,50.31802
2032637,279.2212,240.5559,54.3868,50.25961
2032663,278.4164,239.5568,54.30848,50.14233
2032686,277.7005,238.6902,54.23856,50.04015
2032710,276.9488,237.5488,54.16487,49.9049
2032735,276.296,236.2779,54.10067,49.75339
2032761,275.662,235.1138,54.03813,49.61378
2032786,275.0797,233.9037,53.98053,49.46781
2032811,274.6447,233.1501,53.93739,49.37646
2032833,274.3007,232.5495,53.9032,49.30342
2032860,273.9709,231.8263,53.87039,49.21517
2032885,273.6378,230.9674,53.83718,49.10996
2032911,273.3176,230.4969,53.80522,49.05213
2032935,273.0373,229.6847,53.7772,48.95199
2032960,272.7002,229.1582,53.74345,48.88686
2032984,272.5111,228.4707,53.72449,48.80156
2033009,272.3289,227.6975,53.70622,48.70527
2033033,272.178,226.8885,53.69106,48.60414
2033058,272.0304,225.8753,53.67623,48.4769
2033084,271.9964,225.5149,53.67281,48.43148
2033108,271.9915,225.2878,53.67233,48.40282
2033133,272.0899,224.8411,53.68221,48.34636
2033158,272.128,224.0691,53.68604,48.24848
2033184,272.0982,223.7085,53.68305,48.20263
2033208,272.0981,223.0543,53.68303,48.11924
2033235,272.1288,222.5406,53.68612,48.05357
2033258,272.062,221.989,53.67941,47.98286
2033282,271.9872,221.1836,53.67189,47.87929
2033305,271.9078,220.2656,53.6639,47.76072
2033332,271.8344,219.672,53.65652,47.68376
2033358,271.7165,218.8774,53.64466,47.58038
2033383,271.5728,218.0774,53.63018,47.47589
2033404,271.4343,217.6078,53.61623,47.41437
2033433,271.3002,217.0126,53.6027,47.33617
2033456,271.2427,216.4384,53.5969,47.26051
2033482,271.1813,215.4722,53.59071,47.13272
2033505,271.1785,214.9362,53.59043,47.06155
2033529,271.1843,214.0801,53.59101,46.9475
2033555,271.1728,213.567,53.58985,46.8789
2033581,271.1425,212.8399,53.58679,46.7814
2033604,271.1368,212.3478,53.58622,46.71522
2033629,271.0413,211.7877,53.57657,46.63968
2033652,270.9375,211.3003,53.56609,46.57378
2033677,270.6963,210.1947,53.5417,46.4237
2033704,270.4585,209.6602,53.51763,46.35084
2033728,270.0953,208.6382,53.48081,46.21099
2033755,269.8248,207.9119,53.45335,46.11118
2033779,269.3487,207.1109,53.40493,46.00067
2033804,268.8631,206.4946,53.35544,45.91534
2033827,268.6156,206.1371,53.33017,45.86572
2033853,268.2809,206.0327,53.29594,45.85122
2033878,267.6527,205.5937,53.23155,45.79014
2033903,267.1007,204.8233,53.17482,45.68262
2033928,266.5764,204.2845,53.1208,45.60718
2033952,265.9014,204.2429,53.05103,45.60135
2033976,265.124,203.8577,52.97041,45.54728
2034001,264.3862,203.1079,52.89362,45.44173
2034026,263.5229,202.511,52.80341,45.35742
2034053,262.7161,202.0291,52.71877,45.28918
2034074,262.0705,201.7105,52.65081,45.24397
2034101,261.2971,201.7986,52.56911,45.25647
2034124,260.5308,201.3854,52.48787,45.19775
2034153,259.8508,201.103,52.41551,45.15756
2034173,259.2032,200.2713,52.34639,45.03883
2034200,258.344,199.4803,52.25434,44.92546
2034223,257.7826,198.1755,52.19398,44.73746
2034253,257.3355,197.0706,52.14581,44.5773
2034271,256.7917,196.3988,52.08706,44.4795
2034300,256.2909,195.6726,52.03283,44.37339
2034322,255.9098,195.1474,51.99147,44.29641
2034349,255.4677,194.7535,51.94339,44.23856
2034372,255.0335,194.068,51.89608,44.13758
2034398,254.5621,194.1089,51.84459,44.1436
2034422,254.1958,193.8947,51.8045,44.11199
2034449,253.69,193.4812,51.74903,44.05088
2034471,253.1164,192.7676,51.68597,43.94508
2034496,252.471,192.5786,51.61478,43.917
2034520,252.0871,192.57,51.57234,43.91572
2034547,251.8327,192.027,51.54417,43.83488
2034570,251.2466,191.4008,51.47913,43.74139
2034595,250.4364,191.0245,51.38893,43.68508
2034620,249.688,190.2563,51.30529,43.56976
2034644,249.1912,189.8996,51.24959,43.51608
2034670,248.6895,189.6194,51.19321,43.47383
2034698,248.2701,189.484,51.14597,43.4534
2034718,247.9552,190.0162,51.11044,43.53364
2034742,247.5236,189.9858,51.06166,43.52907
2034767,246.8697,189.937,50.98755,43.52172
2034793,246.0666,189.4146,50.89621,43.44292
2034819,245.1146,189.3564,50.78745,43.43414
2034842,243.6631,188.7914,50.62066,43.34865
2034868,242.165,188.3086,50.44728,43.27543
2034890,240.837,188.3629,50.2925,43.28368
2034915,239.5262,188.0983,50.13874,43.24348
2034939,238.5798,188.0585,50.0271,43.23742
2034964,238.1981,189.3127,49.98193,43.42752
2034989,238.2356,191.2281,49.98637,43.71556
2035014,238.2339,193.8539,49.98617,44.10597
2035041,238.2809,195.9661,49.99173,44.41632
2035065,238.3779,197.7416,50.00321,44.67467
2035089,238.2609,198.3357,49.98937,44.76061
2035115,237.6445,198.7178,49.91627,44.81574
2035140,236.7852,198.539,49.81398,44.78996
2035164,235.9729,198.369,49.7169,44.76543
2035188,234.9368,198.8699,49.59249,44.83767
2035213,233.8311,199.6338,49.45902,44.94749
2035238,232.7225,200.4244,49.32447,45.06073
2035265,231.711,201.494,49.20107,45.2132
2035290,230.724,202.401,49.08006,45.34186
2035312,229.8982,203.3213,48.97835,45.47181
2035338,229.1411,204.1786,48.88474,45.59234
2035362,228.482,204.7498,48.80297,45.67235
2035387,227.6555,205.4698,48.70003,45.77288
2035410,227.1393,206.1207,48.63553,45.86345
2035436,226.4734,205.2626,48.55209,45.74398
2035460,225.6409,204.4523,48.44737,45.63069
2035485,224.5881,203.0613,48.31432,45.43516
2035510,223.3059,202.0733,48.15134,45.29544
2035534,221.5363,201.2068,47.9247,45.17234
2035560,219.9773,200.7044,47.72336,45.10072
2035584,217.9798,199.4092,47.46312,44.91525
2035608,216.4021,197.754,47.25572,44.67647
2035634,215.0688,197.0577,47.07918,44.57544
2035657,213.9008,196.8086,46.92355,44.53919
2035684,213.0898,196.6651,46.81495,44.51831
2035708,212.6151,196.2531,46.75118,44.45824
2035735,212.0344,196.3891,46.67298,44.47808
2035757,211.3344,196.248,46.5784,44.45749
2035782,210.8716,196.2022,46.51568,44.45081
2035806,210.2107,195.6186,46.42588,44.36549
2035830,209.4721,195.2162,46.32515,44.30651
2035856,208.9421,195.1994,46.25265,44.30404
2035880,208.6028,194.9464,46.20614,44.2669
2035905,208.3902,194.6119,46.17696,44.21772
2035929,208.1351,193.731,46.14189,44.08782
2035955,208.0673,193.1703,46.13256,44.00482
2035978,208.2242,192.971,46.15414,43.97527
2036003,208.2345,192.7816,46.15556,43.94715
2036027,208.4193,192.221,46.18095,43.86379
2036053,208.744,191.7725,46.2255,43.79692
2036077,209.0937,191.8336,46.27341,43.80604
2036109,209.8249,192.1285,46.37331,43.85001
2036128,210.3649,191.8686,46.44685,43.81126
2036154,210.9584,191.5107,46.52745,43.75783
2036177,211.7972,191.3253,46.64097,43.73011
2036204,212.6861,190.5649,46.76073,43.61614
2036226,213.5273,189.7807,46.87359,43.49815
2036250,214.3938,189.3006,46.98935,43.42569
2036277,215.4947,189.0435,47.13569,43.38683
2036299,216.2954,188.5995,47.24163,43.31958
2036327,217.1752,188.7863,47.35754,43.34788
2036353,218.2399,188.4118,47.49715,43.2911
2036375,219.7867,188.0197,47.69865,43.23153
2036400,221.2589,188.1324,47.88898,43.24865
2036424,222.741,188.4597,48.07921,43.29836
2036448,224.2678,189.1318,48.27371,43.40018
2036472,226.1142,189.7158,48.50696,43.48838
2036496,227.7073,190.3521,48.7065,43.58417
2036522,229.1146,190.9011,48.88146,43.66658
2036547,230.4127,191.7095,49.04177,43.78752
2036570,232.0327,193.2898,49.24039,44.02253
2036596,233.0887,193.9073,49.36901,44.11385
2036621,233.974,194.1472,49.47631,44.14927
2036647,235.0003,194.0277,49.60014,44.13163
2036671,235.911,193.9485,49.70948,44.11994
2036694,236.8098,193.8486,49.81691,44.10519
2036719,237.776,194.2388,49.93187,44.16277
2036744,238.8765,194.9674,50.06215,44.26999
2036767,239.9405,195.4473,50.18744,44.3404
2036794,241.4956,196.0739,50.36938,44.43208
2036817,242.9442,196.2966,50.53762,44.46458
2036843,244.7703,196.4236,50.74799,44.48311
2036865,246.2348,197.3204,50.91536,44.61359
2036890,247.9734,198.1081,51.1125,44.72773
2036919,249.1275,198.2681,51.24244,44.75085
2036940,250.6654,198.0558,51.41446,44.72015
2036966,252.0264,198.6328,51.56562,44.80349
2036991,252.203,198.1808,51.58516,44.73824
2037015,253.0454,197.1101,51.67814,44.58304
2037041,253.9216,196.9828,51.77444,44.56454
2037064,254.8076,196.7888,51.87142,44.53631
2037088,255.7916,195.957,51.97863,44.41499
2037114,256.5299,195.6862,52.05873,44.37539
2037141,257.3807,194.8174,52.15069,44.24794
2037165,258.1904,194.2425,52.23785,44.16331
2037190,258.9155,193.5497,52.31561,44.061
2037214,259.7657,193.194,52.40644,44.00834
2037239,260.8552,192.5808,52.5223,43.91732
2037264,261.9482,192.6351,52.63792,43.9254
2037288,262.9,191.9905,52.7381,43.82944
2037313,263.9303,192.116,52.84603,43.84816
2037337,265.1118,192.1685,52.96914,43.85597
2037362,266.5367,191.8177,53.1167,43.80368
