Time Stamp(ms),Intersection,,Angle,
,x,y,x,y
1127645,305.5388,243.6843,56.79199,50.6231
1127670,305.0155,243.9005,56.74697,50.64802
1127695,304.4904,244.2401,56.70169,50.6871
1127720,303.868,244.4784,56.64787,50.71449
1127742,303.416,244.4536,56.60868,50.71164
1127763,302.8377,244.1614,56.55844,50.67805
1127788,302.1915,243.9588,56.50214,50.65474
1127812,301.3156,244.1914,56.42554,50.68151
1127836,300.6755,244.5385,56.36938,50.72139
1127863,300.0499,244.8564,56.31433,50.75787
1127887,299.2838,245.1763,56.2467,50.79451
1127911,298.5227,245.4408,56.17927,50.82477
1127937,297.4739,245.7591,56.08596,50.86113
1127961,296.3387,245.7381,55.98446,50.85874
1127986,295.2546,245.542,55.88702,50.83633
1128010,294.2025,245.7024,55.79199,50.85465
1128035,292.9704,246.3993,55.6801,50.93408
1128055,291.7688,247.0947,55.57037,51.01308
1128084,290.2839,247.9417,55.43391,51.10892
1128106,289.0132,248.9426,55.31638,51.22168
1128130,287.788,249.9441,55.2024,51.33395
1128154,286.6059,250.2858,55.0918,51.37212
1128182,285.195,250.515,54.959,51.3977
1128207,283.8907,251.1714,54.83544,51.47077
1128229,282.4978,252.116,54.70264,51.57554
1128254,280.5082,252.8036,54.51145,51.6515
1128279,278.2415,253.3668,54.29141,51.71352
1128303,275.8665,253.863,54.05833,51.76803
1128327,273.4602,253.7453,53.81947,51.75511
1128351,271.0234,253.2337,53.57477,51.69888
1128375,268.7956,252.7812,53.34855,51.64902
1128401,266.5146,252.7266,53.11441,51.643
1128425,264.2511,253.006,52.87953,51.67381
1128451,261.857,253.2085,52.62828,51.6961
1128475,259.9744,252.971,52.42868,51.66995
1128500,257.9185,252.5914,52.20862,51.62808
1128525,256.2212,252.1885,52.02528,51.58356
1128549,254.7595,252.1107,51.86617,51.57495
1128574,253.0577,252.0275,51.6795,51.56575
1128597,251.6401,251.9367,51.52282,51.55569
1128623,250.3093,251.7254,51.37475,51.53228
1128644,249.3306,251.7086,51.26524,51.53041
1128672,248.3509,251.772,51.15509,51.53745
1128695,247.2388,251.9447,51.02942,51.55658
1128722,245.9068,252.2547,50.87799,51.59088
1128744,244.6991,252.868,50.73983,51.6586
1128768,243.0142,253.5611,50.54572,51.73487
1128795,241.1087,254.2074,50.32425,51.80577
1128817,238.6595,255.1115,50.03652,51.90458
1128842,236.2638,256.423,49.75171,52.04715
1128867,233.8745,257.5233,49.46428,52.16606
1128891,231.2158,258.5633,49.14043,52.27787
1128918,228.8067,259.7588,48.84328,52.40571
1128940,226.3498,261.009,48.53657,52.5386
1128965,223.6855,262.3091,48.1997,52.67595
1128995,221.7744,263.5295,47.95531,52.80411
1129012,220.0305,265.1616,47.73026,52.97432
1129040,217.9184,266.9068,47.45507,53.15485
1129061,216.0329,268.2964,47.20694,53.29752
1129087,214.0979,270.2475,46.94987,53.49625
1129111,212.6088,271.7916,46.75035,53.65221
1129135,210.8083,273.0721,46.5071,53.78068
1129160,209.3355,274.3405,46.30649,53.90717
1129183,208.246,275.4996,46.15714,54.02208
1129212,207.8192,275.563,46.09842,54.02835
1129235,207.699,275.3059,46.08185,54.00292
1129261,207.928,275.4387,46.1134,54.01606
1129283,208.3153,276.046,46.16667,54.07603
1129306,208.6817,276.4926,46.21696,54.12003
1129330,209.1843,276.882,46.28581,54.15831
1129356,209.6919,277.429,46.35517,54.21197
1129379,210.2417,278.0808,46.43009,54.27573
1129404,210.8742,278.3035,46.51604,54.29747
1129427,211.696,278.5875,46.6273,54.32516
1129455,212.4059,278.967,46.72304,54.3621
1129477,212.87,279.238,46.78545,54.38844
1129501,213.3036,279.7892,46.84362,54.44191
1129526,213.6815,280.2204,46.89423,54.48364
1129548,214.0856,280.5698,46.94823,54.5174
1129575,214.3535,280.6731,46.98397,54.52736
1129599,214.5943,280.759,47.01606,54.53565
1129624,214.8421,280.9713,47.04904,54.55612
1129647,215.1151,281.3067,47.08532,54.5884
1129673,215.3266,281.7514,47.1134,54.63113
1129696,215.5044,282.079,47.13698,54.66255
1129722,215.6943,282.4684,47.16214,54.69983
1129745,216.0344,283.0728,47.20715,54.75756
1129771,216.3584,283.7981,47.24995,54.82664
1129796,216.5407,284.288,47.274,54.87316
1129824,216.7698,284.8387,47.3042,54.92532
1129846,217.0508,285.3997,47.34119,54.97832
1129874,217.3197,285.7204,47.37654,55.00855
1129894,217.5946,286.1366,47.41262,55.04773
1129919,217.6796,286.6045,47.42378,55.09167
1129944,217.6724,287.0713,47.42283,55.13542
1129967,217.6945,287.4269,47.42573,55.16868
1129993,217.8082,287.6325,47.44063,55.18789
1130015,217.8858,287.9647,47.45081,55.21888
1130041,217.9968,288.5788,47.46534,55.27604
1130064,218.1497,288.9264,47.48534,55.30832
1130088,218.5422,289.2697,47.53665,55.34016
1130113,219.0742,289.3498,47.60603,55.34758
1130142,219.6827,289.4347,47.68514,55.35544
1130165,220.2741,289.6505,47.76181,55.37541
1130189,221.0435,289.8284,47.86123,55.39186
1130214,221.6914,289.9116,47.94464,55.39954
1130236,222.4268,289.8794,48.03901,55.39657
1130262,223.1593,290.3315,48.13264,55.4383
1130284,223.9301,291.0068,48.23081,55.50046
1130310,224.7335,291.57,48.33274,55.55215
1130334,225.3006,291.9053,48.40443,55.58286
1130364,225.8127,292.1824,48.46901,55.6082
1130384,226.282,292.5727,48.52805,55.64385
1130409,226.7073,293.1398,48.58143,55.69552
1130438,227.1259,293.4503,48.63385,55.72375
1130459,228.0383,293.4268,48.74776,55.72162
1130481,229.0261,293.3102,48.87049,55.71102
1130504,230.2557,293.1777,49.02244,55.69897
1130528,231.601,293.3271,49.18762,55.71256
1130551,233.2221,293.5082,49.3852,55.72901
1130578,235.1434,293.3796,49.61734,55.71733
1130602,237.1526,293.174,49.85776,55.69863
1130627,239.5277,293.13,50.13891,55.69463
1130650,242.1632,293.2819,50.44706,55.70845
1130677,245.22,293.3649,50.79951,55.71599
1130700,248.4357,293.2561,51.16464,55.7061
1130724,251.8125,293.1133,51.54193,55.6931
1130748,255.4199,293.0959,51.93819,55.69152
1130772,259.4143,293.2231,52.36895,55.7031
1130799,263.6452,293.3771,52.81622,55.7171
1130824,267.8748,293.3184,53.25434,55.71177
1130848,273.0563,293.3735,53.7791,55.71677
1130872,278.1811,294.0223,54.28553,55.77566
1130897,283.3105,294.6822,54.78024,55.83537
1130918,287.5379,295.3031,55.17905,55.89138
1130944,291.9601,294.9167,55.58788,55.85654
1130968,295.5401,294.5878,55.91272,55.82684
1130995,299.2455,294.4583,56.24331,55.81512
1131019,302.6338,294.7746,56.54069,55.84371
1131045,306.4288,295.5704,56.86831,55.91545
1131066,309.4827,296.7852,57.12785,56.02444
1131090,312.9772,297.95,57.42044,56.12837
1131116,315.9989,298.2313,57.66973,56.15339
1131139,318.9071,298.3083,57.90645,56.16023
1131165,321.6883,298.6305,58.12997,56.18883
1131190,324.3313,298.9014,58.3398,56.21285
1131216,327.1976,298.6888,58.56458,56.19401
1131241,329.4968,298.5814,58.74282,56.18447
1131263,331.8008,298.835,58.91964,56.20696
1131287,333.7441,298.9063,59.06736,56.21328
1131312,335.642,298.5857,59.21043,56.18486
1131336,337.3101,298.0948,59.33519,56.14125
1131362,339.5483,297.7625,59.50116,56.11168
1131384,341.4242,297.5713,59.63902,56.09464
1131409,343.3187,297.7468,59.7771,56.11028
1131436,344.8557,298.0166,59.88829,56.1343
1131458,346.4604,297.7424,60.00359,56.10989
1131484,347.7132,297.5219,60.09306,56.09024
1131508,348.989,297.3783,60.18367,56.07743
1131534,350.4753,297.0624,60.2886,56.04923
1131555,352.1168,296.8757,60.40371,56.03253
1131583,353.3753,296.6497,60.49142,56.01231
1131603,354.4362,296.3971,60.56499,55.98969
1131630,355.7501,295.9715,60.65564,55.95151
1131653,356.7271,295.7921,60.72272,55.93538
1131678,357.6311,295.5342,60.78453,55.91219
1131703,358.3428,295.3583,60.83303,55.89635
1131725,359.0456,295.1484,60.88078,55.87745
1131744,359.6972,294.8055,60.92492,55.84651
1131764,360.243,294.5476,60.9618,55.8232
1131784,360.8188,294.2768,61.00063,55.79871
1131802,361.4988,293.9573,61.04634,55.76977
1131824,362.1527,293.5453,61.09018,55.73239
1131846,362.9248,293.028,61.1418,55.68534
1131866,363.9345,292.6533,61.20903,55.6512
1131885,364.8791,292.3664,61.27167,55.62502
1131908,366.1731,291.9412,61.35708,55.58614
1131931,367.7381,291.3162,61.45976,55.52888
1131955,369.3083,290.6374,61.56211,55.46648
1131982,370.8654,290.0378,61.66294,55.41121
1132004,372.258,289.3656,61.75256,55.34904
1132029,373.5772,288.9057,61.83698,55.3064
1132054,374.7672,288.4782,61.91273,55.26669
1132080,375.9544,288.0642,61.98794,55.22815
1132103,376.9205,287.5658,62.04887,55.18166
1132130,377.7263,287.0818,62.0995,55.1364
1132151,378.4627,286.2545,62.14562,55.05881
1132178,379.0863,285.4768,62.18457,54.9856
1132201,379.6885,284.8608,62.22209,54.92741
1132226,380.128,284.3318,62.24941,54.8773
1132253,380.6078,283.7451,62.27918,54.82159
1132275,380.8707,283.251,62.29547,54.77457
1132300,381.1421,282.6451,62.31227,54.71673
1132324,381.5596,281.9861,62.33807,54.65365
1132349,382.1328,281.1355,62.37342,54.57193
1132374,382.6005,280.3729,62.4022,54.49838
1132398,383.2049,279.2321,62.43932,54.38786
1132420,383.8736,278.2176,62.48027,54.28908
1132446,384.7467,277.0699,62.53357,54.17676
1132471,385.4156,276.374,62.57428,54.10835
1132495,386.2903,275.6444,62.62735,54.03639
1132520,386.9861,275.1963,62.66943,53.99207
1132542,387.7941,274.7992,62.71814,53.95271
1132581,388.5155,274.4398,62.7615,53.91704
1132593,389.1658,274.082,62.80047,53.88145
1132616,389.9469,273.7731,62.84715,53.85068
1132642,390.5197,273.4601,62.88129,53.81945
1132670,391.0073,273.0279,62.91029,53.77626
1132691,391.6998,272.62,62.95137,53.73541
1132717,392.4385,272.1029,62.99506,53.68352
1132736,393.07,271.7384,63.03232,53.64685
1132761,393.7286,271.1136,63.07106,53.58387
1132786,394.3408,270.4395,63.10699,53.51571
1132811,395.0385,269.6841,63.14783,53.43906
1132836,395.4682,269.1785,63.17292,53.3876
1132862,396.11,268.4679,63.21032,53.31507
1132886,397.0328,267.5976,63.26393,53.2259
1132912,397.7183,266.5369,63.30362,53.11671
1132934,398.5192,264.9804,63.34985,52.95549
1132962,399.3591,263.9552,63.39818,52.84863
1132986,400.0168,263.2177,63.43591,52.77144
1133007,400.7211,262.5641,63.4762,52.70279
1133036,401.4415,262.039,63.5173,52.64749
1133057,402.0485,261.3882,63.55184,52.57875
1133082,402.8053,260.7781,63.59478,52.51411
1133107,403.3134,260.2647,63.62355,52.45958
1133130,403.8702,259.7563,63.65499,52.40545
1133158,404.382,259.1862,63.68383,52.34457
1133181,405.026,258.5709,63.72005,52.27868
1133204,405.5404,258.207,63.74891,52.23963
1133229,406.1012,257.7528,63.7803,52.19078
1133254,406.9247,257.6253,63.82628,52.17706
1133277,407.4818,257.6098,63.8573,52.17538
1133303,407.9073,257.5841,63.88094,52.17262
1133326,408.2254,257.5099,63.89859,52.16461
1133351,408.5033,257.3439,63.91399,52.14672
1133376,408.6627,257.1014,63.92282,52.12054
1133401,408.5934,256.9432,63.91898,52.10344
1133423,408.4606,256.7644,63.91163,52.08412
1133448,408.2696,256.5474,63.90104,52.06063
1133474,408.2295,256.5078,63.89882,52.05634
1133499,408.1678,256.5952,63.8954,52.0658
1133522,407.993,256.4136,63.8857,52.04613
1133546,407.8531,255.9087,63.87793,51.99135
1133571,407.7368,255.5237,63.87148,51.94949
1133596,407.4624,255.2525,63.85622,51.91996
1133622,407.1434,254.8639,63.83846,51.87757
1133644,406.9998,254.5017,63.83047,51.83799
1133669,406.7423,254.2287,63.81611,51.80811
1133694,406.4581,253.9695,63.80025,51.77971
1133720,406.1255,253.7718,63.78166,51.75801
1133742,405.7609,253.7207,63.76126,51.75241
1133766,405.0197,253.5321,63.71969,51.73169
1133790,404.4734,253.2694,63.68898,51.70281
1133816,403.8764,253.0612,63.65534,51.67988
1133841,402.6894,253.0818,63.58821,51.68216
1133866,401.349,253.1192,63.51203,51.68627
1133890,399.4719,253.0347,63.40466,51.67696
1133915,397.7252,252.9306,63.30402,51.6655
1133940,396.2369,252.9184,63.2177,51.66415
1133963,395.0674,253.1257,63.14952,51.68699
1133986,393.8442,253.4187,63.07786,51.71923
1134012,392.7613,253.5823,63.01411,51.73721
1134041,391.6457,253.8585,62.94816,51.76753
1134062,390.5604,254.0354,62.88371,51.78693
1134085,389.3292,254.0689,62.81025,51.7906
1134110,388.5889,253.9204,62.7659,51.77432
1134134,388.1084,253.8973,62.73705,51.77179
1134158,387.5956,254.1238,62.70618,51.79662
1134182,387.2231,254.1457,62.68373,51.79902
1134209,387.0723,254.0513,62.67463,51.78868
1134235,386.9259,254.2728,62.66579,51.81294
1134256,386.6728,254.6758,62.65049,51.85703
1134281,386.263,255.0434,62.6257,51.89716
1134306,385.8489,255.2272,62.6006,51.91721
1134332,385.6801,255.3047,62.59035,51.92565
1134357,385.3634,255.5904,62.57111,51.95675
1134377,384.9707,255.7262,62.54722,51.97152
1134407,384.6437,255.9707,62.5273,51.99809
1134429,385.4316,255.9747,62.57526,51.99852
1134455,385.3633,256.0536,62.57111,52.00708
1134475,385.3646,256.0305,62.57118,52.00458
1134502,385.4676,256.1031,62.57744,52.01245
1134526,385.3875,256.1783,62.57257,52.02062
1134550,385.1264,256.2512,62.55669,52.02853
1134576,384.7743,256.0981,62.53526,52.01192
1134600,384.5871,255.8225,62.52384,51.98199
1134626,384.3429,255.6979,62.50895,51.96844
1134648,383.8399,255.7581,62.47821,51.97498
1134675,383.3311,255.4891,62.44705,51.94572
1134697,382.9755,255.3648,62.42524,51.93219
1134726,382.7919,255.5723,62.41396,51.95478
1134747,382.5317,256.1052,62.39797,52.01269
1134774,382.467,256.3473,62.39399,52.03894
1134797,382.7077,256.6334,62.40879,52.06993
1134826,383.0513,257.1476,62.42989,52.12553
1134845,383.4709,257.6717,62.45562,52.18205
1134870,384.2553,258.0262,62.5036,52.2202
1134896,384.994,258.3166,62.54864,52.25139
1134921,385.6447,258.6759,62.5882,52.28994
1134944,386.0482,259.0801,62.61268,52.33322
1134969,386.4053,259.8368,62.63431,52.41402
1134993,386.7624,260.735,62.65591,52.50954
1135018,387.1709,261.7266,62.68058,52.61452
1135042,387.5879,262.8714,62.70573,52.73509
1135066,388.0314,263.5275,62.73241,52.8039
1135094,388.599,263.7398,62.76651,52.82611
1135118,389.0947,264.0545,62.79622,52.859
1135143,389.4198,264.3445,62.81567,52.88927
1135164,389.5536,264.3964,62.82366,52.89468
1135190,389.5581,264.2363,62.82393,52.87798
1135215,389.5593,264.4108,62.82401,52.89618
1135242,389.5724,264.8217,62.82479,52.93898
1135262,389.7362,264.8424,62.83458,52.94114
1135287,389.7889,264.7878,62.83772,52.93546
1135312,389.6171,264.7023,62.82746,52.92656
1135336,389.3477,264.9247,62.81136,52.9497
1135360,388.9316,265.2913,62.78645,52.98779
1135386,388.2478,265.7139,62.74542,53.03162
1135410,387.1272,266.1614,62.67794,53.07793
1135435,385.5974,266.0598,62.58533,53.06742
1135461,383.7479,265.9477,62.47258,53.05583
1135483,381.792,265.7909,62.35241,53.03959
1135510,379.6366,266.0283,62.21886,53.06417
1135531,377.3649,266.1822,62.07681,53.08008
1135556,375.201,266.2512,61.94026,53.08721
1135581,373.5185,266.3265,61.83323,53.09499
1135606,371.8475,266.6509,61.7262,53.12848
1135630,370.4615,266.8135,61.63685,53.14524
1135657,368.8949,266.8292,61.53523,53.14686
1135684,367.8234,266.7825,61.46534,53.14204
1135705,366.236,266.8278,61.36122,53.14672
1135728,364.8414,266.5839,61.26918,53.12157
1135751,362.9682,265.9372,61.14469,53.05473
1135779,361.0556,265.435,61.01656,53.0027
1135802,359.096,265.333,60.8842,52.99212
1135828,357.3891,264.984,60.76801,52.95587
1135851,355.6909,264.5352,60.65157,52.90915
1135879,353.9669,264.0227,60.53248,52.85568
1135901,352.6917,263.7411,60.44384,52.82625
1135924,351.3759,263.4532,60.35185,52.79612
1135949,350.3261,263.0258,60.2781,52.7513
1135979,349.2564,262.5971,60.2026,52.70626
1136001,348.3222,262.4163,60.13638,52.68724
1136023,347.3786,262.3158,60.06921,52.67666
1136048,346.4457,261.9806,60.00255,52.64133
1136077,345.5079,261.712,59.93525,52.61298
1136096,344.5899,261.4941,59.86912,52.58995
1136121,343.4857,261.3841,59.78922,52.57832
1136149,342.5793,261.1071,59.72335,52.54899
1136173,341.5561,260.7954,59.64866,52.51596
1136197,340.4836,260.5148,59.57003,52.48616
1136224,339.4835,260.1453,59.49637,52.44688
1136245,338.476,259.6939,59.42184,52.39878
1136271,337.71,259.3372,59.36496,52.3607
1136294,336.6975,258.9747,59.28947,52.32195
1136317,335.7553,258.6666,59.21893,52.28894
1136343,334.578,258.1165,59.13037,52.2299
1136368,333.5829,257.8541,59.05516,52.20168
1136393,332.4004,257.4921,58.96535,52.1627
1136418,331.2859,257.1096,58.88028,52.12143
1136440,329.9714,256.7141,58.7794,52.07867
1136464,328.6788,256.4141,58.67962,52.04618
1136488,326.992,256.164,58.54856,52.01907
1136514,325.2543,255.9245,58.4125,51.99307
1136538,323.4281,255.6123,58.26837,51.95913
1136562,321.4362,255.2224,58.10982,51.91668
1136586,319.3926,254.8597,57.94567,51.87711
1136613,317.2383,254.552,57.771,51.84349
1136635,315.1644,254.5594,57.60122,51.8443
1136661,313.0269,254.4331,57.42456,51.83048
1136683,311.0813,254.2715,57.26228,51.8128
1136710,309.2016,254.1678,57.10411,51.80143
1136732,307.8127,254.0962,56.98637,51.79359
1136754,306.6225,253.8365,56.88488,51.76511
1136776,305.317,253.4699,56.77292,51.72485
1136797,304.1005,253.099,56.66799,51.68405
1136816,303.0139,252.953,56.57376,51.66796
1136834,302.0245,252.9262,56.48756,51.66501
1136854,301.0896,252.9169,56.40574,51.66398
1136877,300.2964,252.8105,56.33604,51.65226
1136895,299.6353,252.5805,56.27776,51.62688
1136916,299.0209,252.4791,56.22343,51.61568
1136938,298.1249,252.2341,56.14393,51.5886
1136962,297.2031,252.0979,56.06179,51.57354
1136986,296.485,251.6888,55.99756,51.52822
1137012,295.6576,251.2274,55.92329,51.477
1137035,294.7563,250.7354,55.84207,51.42226
1137062,293.4601,250.1284,55.72465,51.35455
1137089,292.7743,249.6906,55.66223,51.30558
1137108,291.9634,248.9111,55.58818,51.21814
1137133,291.5378,248.1007,55.5492,51.12687
1137158,291.4221,247.7712,55.53859,51.08966
1137182,291.2183,247.4196,55.51989,51.04988
1137207,290.9706,246.9202,55.49713,50.99328
1137233,290.7962,246.5112,55.4811,50.94682
1137258,290.4059,246.0473,55.44516,50.894
1137282,289.7234,245.8017,55.38216,50.866
1137307,289.2461,245.8865,55.33798,50.87567
1137331,288.5956,245.6673,55.27761,50.85065
1137353,287.4193,245.5383,55.16797,50.83592
1137381,286.1514,245.3898,55.04911,50.81894
1137404,285.0608,245.3825,54.94632,50.8181
1137429,283.581,245.3446,54.80598,50.81377
1137451,281.8452,245.1421,54.64014,50.7906
1137480,279.627,245.2717,54.42619,50.80544
1137500,277.7201,245.6952,54.24047,50.85384
1137526,275.6374,245.8967,54.0357,50.87683
1137551,274.1288,245.8407,53.88611,50.87044
1137572,272.414,246.2961,53.71475,50.92234
1137600,271.1905,247.1111,53.59163,51.01493
1137624,269.9656,247.8091,53.46765,51.09394
1137649,269.1257,248.4443,53.38222,51.16561
